7.611805832126906898e+04
7.612828993069460557e+04
7.612038368704759341e+04
7.612038368704759341e+04
7.612038368704759341e+04
7.613108036962883489e+04
7.612503441860465682e+04
7.613340573540737387e+04
7.613805646696442273e+04
7.613805646696442273e+04
7.614131197905437148e+04
7.614503256430002511e+04
7.614131197905437148e+04
7.614224212536578125e+04
7.614224212536578125e+04
7.617805275835515931e+04
7.616317041737255931e+04
7.617107666101957147e+04
7.616131012474973977e+04
7.616131012474973977e+04
7.615712446634838125e+04
7.616317041737255931e+04
7.617433217310950567e+04
7.616224027106114954e+04
7.616224027106114954e+04
7.617433217310950567e+04
7.616037997843833000e+04
7.618130827044509351e+04
7.618130827044509351e+04
7.618642407515786181e+04
7.617712261204374954e+04
7.618037812413368374e+04
7.618223841675651784e+04
7.618223841675651784e+04
7.617944797782227397e+04
7.618130827044509351e+04
7.618130827044509351e+04
7.618316856306792761e+04
7.618316856306792761e+04
7.619433031880487397e+04
7.619433031880487397e+04
7.619619061142769351e+04
7.619619061142769351e+04
7.619619061142769351e+04
7.620223656245187158e+04
7.620130641614046181e+04
7.621107295241029351e+04
7.621804904974588135e+04
7.621804904974588135e+04
7.621711890343447158e+04
7.621804904974588135e+04
7.621618875712306181e+04
7.622223470814723987e+04
7.622223470814723987e+04
7.622502514708148374e+04
7.622130456183583010e+04
7.622502514708148374e+04
7.622223470814723987e+04
7.622223470814723987e+04
7.622828065917141794e+04
7.624734865855537646e+04
7.622921080548282771e+04
7.624316300015401794e+04
7.624316300015401794e+04
7.622316485445864964e+04
7.622828065917141794e+04
7.623432661019559600e+04
7.622223470814723987e+04
7.622223470814723987e+04
7.621200309872170328e+04
7.621200309872170328e+04
7.622316485445864964e+04
7.620037626982905203e+04
7.620037626982905203e+04
7.618828436778069590e+04
7.620409685507470567e+04
7.619107480671492522e+04
7.619107480671492522e+04
7.619340017249346420e+04
7.617200680733098125e+04
7.617619246573233977e+04
7.615712446634838125e+04
7.615712446634838125e+04
7.616735607577391784e+04
7.615014836901279341e+04
7.615200866163561295e+04
7.612038368704759341e+04
7.612038368704759341e+04
7.612503441860465682e+04
7.613108036962883489e+04
7.612317412598183728e+04
7.611201237024489092e+04
7.611201237024489092e+04
7.611526788233482512e+04
7.610410612659787876e+04
7.609015393192670308e+04
7.608643334668104944e+04
7.608643334668104944e+04
7.608224768827969092e+04
7.608317783459110069e+04
7.609806017557370069e+04
7.606503998151856649e+04
7.606503998151856649e+04
7.607434144463269331e+04
7.607806202987833240e+04
7.607620173725551285e+04
7.606410983520715672e+04
7.606410983520715672e+04
7.605713373787155433e+04
7.605015764053596649e+04
7.603341500693054695e+04
7.604736720160173718e+04
7.604736720160173718e+04
7.606038924996150308e+04
7.603806573848761036e+04
7.603341500693054695e+04
7.602736905590636889e+04
7.602736905590636889e+04
7.604132125057754456e+04
7.602829920221777866e+04
7.602132310488219082e+04
7.602132310488219082e+04
7.603341500693054695e+04
7.601527715385801275e+04
7.602736905590636889e+04
7.602039295857078105e+04
7.602039295857078105e+04
7.602504369012782990e+04
7.601713744648083230e+04
7.601806759279224207e+04
7.601109149545665423e+04
7.601109149545665423e+04
7.601806759279224207e+04
7.601016134914524446e+04
7.601202164176806400e+04
7.600411539812106639e+04
7.600411539812106639e+04
7.601434700754658843e+04
7.600830105652241036e+04
7.602132310488219082e+04
7.600504554443247616e+04
7.600504554443247616e+04
7.601527715385801275e+04
7.601527715385801275e+04
7.601202164176806400e+04
7.601016134914524446e+04
7.601016134914524446e+04
7.601806759279224207e+04
7.601620730016942252e+04
7.601713744648083230e+04
7.600318525180964207e+04
7.600318525180964207e+04
7.600923120283382013e+04
7.600318525180964207e+04
7.601713744648083230e+04
7.600830105652241036e+04
7.600830105652241036e+04
7.602225325119360059e+04
7.602225325119360059e+04
7.601620730016942252e+04
7.602411354381642013e+04
7.602411354381642013e+04
7.601806759279224207e+04
7.602411354381642013e+04
7.601202164176806400e+04
7.603527529955336649e+04
7.603527529955336649e+04
7.602318339750501036e+04
7.601109149545665423e+04
7.602643890959495911e+04
7.602643890959495911e+04
7.602411354381642013e+04
7.601946281225935672e+04
7.602504369012782990e+04
7.602736905590636889e+04
7.602736905590636889e+04
7.602504369012782990e+04
7.602922934852918843e+04
7.603108964115202252e+04
7.603108964115202252e+04
7.603108964115202252e+04
7.603527529955336649e+04
7.603341500693054695e+04
7.604225139688896888e+04
7.603806573848761036e+04
7.603806573848761036e+04
7.603527529955336649e+04
7.603806573848761036e+04
7.604736720160173718e+04
7.603201978746343229e+04
7.603201978746343229e+04
7.605806388418297865e+04
7.604829734791314695e+04
7.606410983520715672e+04
7.605015764053596649e+04
7.605015764053596649e+04
7.605201793315878604e+04
7.606224954258432263e+04
7.605108778684737626e+04
7.606503998151856649e+04
7.606503998151856649e+04
7.606317968889573240e+04
7.607201607885415433e+04
7.607806202987833240e+04
7.607108593254274456e+04
7.607108593254274456e+04
7.608317783459110069e+04
7.607108593254274456e+04
7.606643520098568115e+04
7.608224768827969092e+04
7.608224768827969092e+04
7.608317783459110069e+04
7.608317783459110069e+04
7.607620173725551285e+04
7.608410798090251046e+04
7.608410798090251046e+04
7.608410798090251046e+04
7.608131754196828115e+04
7.609806017557370069e+04
7.609806017557370069e+04
7.610131568766364944e+04
7.609340944401663728e+04
7.610038554135222512e+04
7.609433959032804705e+04
7.609433959032804705e+04
7.610503627290928853e+04
7.610224583397505921e+04
7.611108222393346659e+04
7.610131568766364944e+04
7.610131568766364944e+04
7.610643149237641774e+04
7.610736163868782751e+04
7.610224583397505921e+04
7.611015207762205682e+04
7.611015207762205682e+04
7.610922193131064705e+04
7.611015207762205682e+04
7.611340758971200557e+04
7.611201237024489092e+04
7.611201237024489092e+04
7.611526788233482512e+04
7.611433773602341535e+04
7.611015207762205682e+04
7.609526973663945682e+04
7.609526973663945682e+04
7.613201051594024466e+04
7.611433773602341535e+04
7.611619802864623489e+04
7.612224397967041295e+04
7.612224397967041295e+04
7.612503441860465682e+04
7.613108036962883489e+04
7.613340573540737387e+04
7.612828993069460557e+04
7.612828993069460557e+04
7.613712632065301295e+04
7.614503256430002511e+04
7.614921822270138364e+04
7.614224212536578125e+04
7.614224212536578125e+04
7.614642778376713977e+04
7.614038183274296171e+04
7.615619432003697148e+04
7.616735607577391784e+04
7.616735607577391784e+04
7.617200680733098125e+04
7.615200866163561295e+04
7.616131012474973977e+04
7.616131012474973977e+04
7.617107666101957147e+04
7.616224027106114954e+04
7.616828622208532761e+04
7.617014651470814715e+04
7.617014651470814715e+04
7.617805275835515931e+04
7.617712261204374954e+04
7.617944797782227397e+04
7.616503070999537886e+04
7.616503070999537886e+04
7.618735422146928613e+04
7.618921451409210567e+04
7.618735422146928613e+04
7.618642407515786181e+04
7.618642407515786181e+04
7.619619061142769351e+04
7.619340017249346420e+04
7.619712075773910328e+04
7.619433031880487397e+04
7.619433031880487397e+04
7.620316670876329590e+04
7.621014280609888374e+04
7.621200309872170328e+04
7.621711890343447158e+04
7.621711890343447158e+04
7.621339831818881794e+04
7.622316485445864964e+04
7.623944241490836430e+04
7.624502329277683748e+04
7.624502329277683748e+04
7.623711704912983987e+04
7.624316300015401794e+04
7.624223285384260816e+04
7.624502329277683748e+04
7.624502329277683748e+04
7.624409314646542771e+04
7.624641851224396669e+04
7.625804534113661794e+04
7.625944056060373259e+04
7.625944056060373259e+04
7.625711519482520816e+04
7.626827695056215452e+04
7.627106738949638384e+04
7.628036885261051066e+04
7.628036885261051066e+04
7.627943870629910089e+04
7.627339275527492282e+04
7.628222914523333020e+04
7.628222914523333020e+04
7.628920524256893259e+04
7.627339275527492282e+04
7.628920524256893259e+04
7.629013538888034236e+04
7.629013538888034236e+04
7.629246075465886679e+04
7.629618133990452043e+04
7.629804163252733997e+04
7.630408758355151804e+04
7.630408758355151804e+04
7.630827324195287656e+04
7.631431919297705463e+04
7.632222543662406679e+04
7.630641294933005702e+04
7.630641294933005702e+04
7.631943499768982292e+04
7.632036514400123269e+04
7.633338719236101315e+04
7.631245890035423508e+04
7.631245890035423508e+04
7.632501587555829610e+04
7.631617948559988872e+04
7.633431733867242292e+04
7.634315372863084485e+04
7.634315372863084485e+04
7.633338719236101315e+04
7.634501402125366440e+04
7.634222358231942053e+04
7.633803792391807656e+04
7.633803792391807656e+04
7.634408387494225462e+04
7.635710592330202053e+04
7.635803606961343030e+04
7.635338533805636689e+04
7.635338533805636689e+04
7.635710592330202053e+04
7.636408202063760837e+04
7.638128972739874735e+04
7.636408202063760837e+04
7.636408202063760837e+04
7.638035958108733757e+04
7.637105811797321076e+04
7.637803421530879859e+04
7.637803421530879859e+04
7.637942943477591325e+04
7.638035958108733757e+04
7.638408016633297666e+04
7.638128972739874735e+04
7.638128972739874735e+04
7.639617206838133279e+04
7.639338162944710348e+04
7.639803236100416689e+04
7.639803236100416689e+04
7.639803236100416689e+04
7.641105440936393279e+04
7.640640367780686938e+04
7.640640367780686938e+04
7.641244962883104745e+04
7.641244962883104745e+04
7.644035401817342790e+04
7.641012426305252302e+04
7.641942572616664984e+04
7.641337977514247177e+04
7.641337977514247177e+04
7.642128601878946938e+04
7.641942572616664984e+04
7.643709850608347915e+04
7.642314631141228892e+04
7.642314631141228892e+04
7.642826211612505722e+04
7.643430806714924984e+04
7.643616835977206938e+04
7.643337792083782551e+04
7.643337792083782551e+04
7.644965548128754017e+04
7.645384113968889869e+04
7.645384113968889869e+04
7.644779518866472063e+04
7.644779518866472063e+04
7.646453782227014017e+04
7.645663157862314256e+04
7.646453782227014017e+04
7.646453782227014017e+04
7.646453782227014017e+04
7.646779333436008892e+04
7.647662972431849630e+04
7.647569957800708653e+04
7.649569772370245482e+04
7.649569772370245482e+04
7.648360582165409869e+04
7.649755801632527437e+04
7.649476757739104505e+04
7.649476757739104505e+04
7.650174367472663289e+04
7.649476757739104505e+04
7.650174367472663289e+04
7.650360396734945243e+04
7.650360396734945243e+04
7.651058006468505482e+04
7.651290543046357925e+04
7.650081352841522312e+04
7.651197528415216948e+04
7.651197528415216948e+04
7.651569586939782312e+04
7.650964991837364505e+04
7.650871977206222073e+04
7.650778962575081096e+04
7.650778962575081096e+04
7.651569586939782312e+04
7.651476572308641335e+04
7.651755616202064266e+04
7.651058006468505482e+04
7.651058006468505482e+04
7.650592933312799141e+04
7.649988338210381335e+04
7.651058006468505482e+04
7.650592933312799141e+04
7.650592933312799141e+04
7.649569772370245482e+04
7.650592933312799141e+04
7.648779148005545721e+04
7.648453596796550846e+04
7.648453596796550846e+04
7.649197713845680119e+04
7.649197713845680119e+04
7.648593118743262312e+04
7.646267752964732063e+04
7.646267752964732063e+04
7.646872348067149869e+04
7.646174738333591085e+04
7.646267752964732063e+04
7.645756172493455233e+04
7.645756172493455233e+04
7.646081723702448653e+04
7.646360767595873040e+04
7.645477128600030846e+04
7.644872533497613040e+04
7.644872533497613040e+04
7.646453782227014017e+04
7.644500474973049131e+04
7.644128416448483767e+04
7.644128416448483767e+04
7.643709850608347915e+04
7.644314445710765722e+04
7.644965548128754017e+04
7.644500474973049131e+04
7.644500474973049131e+04
7.643616835977206938e+04
7.643802865239488892e+04
7.644128416448483767e+04
7.642221616510087915e+04
7.642221616510087915e+04
7.643012240874789131e+04
7.643709850608347915e+04
7.644407460341906699e+04
7.643105255505930108e+04
7.643105255505930108e+04
7.644035401817342790e+04
7.643616835977206938e+04
7.643012240874789131e+04
7.642035587247805961e+04
7.642035587247805961e+04
7.642826211612505722e+04
7.642500660403512302e+04
7.643012240874789131e+04
7.641617021407670109e+04
7.641617021407670109e+04
7.641803050669953518e+04
7.642128601878946938e+04
7.641803050669953518e+04
7.641710036038811086e+04
7.641710036038811086e+04
7.642221616510087915e+04
7.642500660403512302e+04
7.642221616510087915e+04
7.643802865239488892e+04
7.643802865239488892e+04
7.642128601878946938e+04
7.642640182350223768e+04
7.643012240874789131e+04
7.641524006776529131e+04
7.641524006776529131e+04
7.642826211612505722e+04
7.643012240874789131e+04
7.643337792083782551e+04
7.644035401817342790e+04
7.644035401817342790e+04
7.643942387186201813e+04
7.643523821346065961e+04
7.643523821346065961e+04
7.643523821346065961e+04
7.644221431079624745e+04
7.644035401817342790e+04
7.643616835977206938e+04
7.643616835977206938e+04
7.643616835977206938e+04
7.644500474973049131e+04
7.644407460341906699e+04
7.643337792083782551e+04
7.643942387186201813e+04
7.643942387186201813e+04
7.643709850608347915e+04
7.644314445710765722e+04
7.644500474973049131e+04
7.644500474973049131e+04
7.644500474973049131e+04
7.643616835977206938e+04
7.644314445710765722e+04
7.644407460341906699e+04
7.643337792083782551e+04
7.643337792083782551e+04
7.643802865239488892e+04
7.644128416448483767e+04
7.644593489604190108e+04
7.643709850608347915e+04
7.643709850608347915e+04
7.643523821346065961e+04
7.645291099337748892e+04
7.644407460341906699e+04
7.643942387186201813e+04
7.643942387186201813e+04
7.645756172493455233e+04
7.644314445710765722e+04
7.644779518866472063e+04
7.645570143231173279e+04
7.645570143231173279e+04
7.645663157862314256e+04
7.645058562759896449e+04
7.645988709071307676e+04
7.646779333436008892e+04
7.646779333436008892e+04
7.646360767595873040e+04
7.647290913907285722e+04
7.646686318804867915e+04
7.646686318804867915e+04
7.647895509009703528e+04
7.647755987062992062e+04
7.648267567534268892e+04
7.647662972431849630e+04
7.647662972431849630e+04
7.649058191898968653e+04
7.649058191898968653e+04
7.647662972431849630e+04
7.648686133374403289e+04
7.648686133374403289e+04
7.650360396734945243e+04
7.649988338210381335e+04
7.650081352841522312e+04
7.650267382103804266e+04
7.650267382103804266e+04
7.651058006468505482e+04
7.649755801632527437e+04
7.651755616202064266e+04
7.650871977206222073e+04
7.650871977206222073e+04
7.650964991837364505e+04
7.651197528415216948e+04
7.652174182042200118e+04
7.650174367472663289e+04
7.650174367472663289e+04
7.651988152779916709e+04
7.650499918681658164e+04
7.651197528415216948e+04
7.650499918681658164e+04
7.650499918681658164e+04
7.650081352841522312e+04
7.652081167411059141e+04
7.651476572308641335e+04
7.651383557677498902e+04
7.651383557677498902e+04
7.651058006468505482e+04
7.651476572308641335e+04
7.651988152779916709e+04
7.651569586939782312e+04
7.651569586939782312e+04
7.651290543046357925e+04
7.652081167411059141e+04
7.652592747882335971e+04
7.652592747882335971e+04
7.652592747882335971e+04
7.651476572308641335e+04
7.651988152779916709e+04
7.653197342984753777e+04
7.653197342984753777e+04
7.652499733251193538e+04
7.652174182042200118e+04
7.653476386878176709e+04
7.652964806406899879e+04
7.652964806406899879e+04
7.654685577083012322e+04
7.653290357615894754e+04
7.653755430771601095e+04
7.654173996611736948e+04
7.654173996611736948e+04
7.654778591714154754e+04
7.654964620976436709e+04
7.656592377021408174e+04
7.653755430771601095e+04
7.653755430771601095e+04
7.654964620976436709e+04
7.653894952718312561e+04
7.654871606345295731e+04
7.654964620976436709e+04
7.654964620976436709e+04
7.654685577083012322e+04
7.656359840443555731e+04
7.655755245341136470e+04
7.655383186816572561e+04
7.655383186816572561e+04
7.656871420914832561e+04
7.655662230709995492e+04
7.655894767287849390e+04
7.655057635607577686e+04
7.655057635607577686e+04
7.656871420914832561e+04
7.656592377021408174e+04
7.656499362390267197e+04
7.656173811181272322e+04
7.656173811181272322e+04
7.658173625750809151e+04
7.657662045279532322e+04
7.655755245341136470e+04
7.657987596488527197e+04
7.657987596488527197e+04
7.658080611119668174e+04
7.658173625750809151e+04
7.659754874480210128e+04
7.659568845217928174e+04
7.659568845217928174e+04
7.658964250115508912e+04
7.658871235484367935e+04
7.659754874480210128e+04
7.659754874480210128e+04
7.658685206222085981e+04
7.659568845217928174e+04
7.660266454951486958e+04
7.658871235484367935e+04
7.658871235484367935e+04
7.661568659787463548e+04
7.659754874480210128e+04
7.658871235484367935e+04
7.660498991529339401e+04
7.660498991529339401e+04
7.661661674418604525e+04
7.660173440320345981e+04
7.660359469582627935e+04
7.661057079316186719e+04
7.661057079316186719e+04
7.661568659787463548e+04
7.661196601262899640e+04
7.661987225627599400e+04
7.661196601262899640e+04
7.661196601262899640e+04
7.662173254889881355e+04
7.662359284152164764e+04
7.663056893885723548e+04
7.661894210996458423e+04
7.661894210996458423e+04
7.662591820730017207e+04
7.662870864623441594e+04
7.663894025565995253e+04
7.662684835361158184e+04
7.662684835361158184e+04
7.664080054828277207e+04
7.665754318188819161e+04
7.664173069459418184e+04
7.664359098721701594e+04
7.664359098721701594e+04
7.664591635299554036e+04
7.666079869397814036e+04
7.665893840135530627e+04
7.665754318188819161e+04
7.665754318188819161e+04
7.666172884028955013e+04
7.666684464500231843e+04
7.668358727860773797e+04
7.667289059602649650e+04
7.667289059602649650e+04
7.667196044971508672e+04
7.667661118127215013e+04
7.666963508393654774e+04
7.666963508393654774e+04
7.667986669336208433e+04
7.668358727860773797e+04
7.667568103496072581e+04
7.667986669336208433e+04
7.667986669336208433e+04
7.667475088864931604e+04
7.669381888803327456e+04
7.666777479131372820e+04
7.667196044971508672e+04
7.667196044971508672e+04
7.667986669336208433e+04
7.667056523024797207e+04
7.668079683967349411e+04
7.667289059602649650e+04
7.667289059602649650e+04
7.668358727860773797e+04
7.668498249807485263e+04
7.667382074233790627e+04
7.667196044971508672e+04
7.667196044971508672e+04
7.667893654705067456e+04
7.667568103496072581e+04
7.668498249807485263e+04
7.667754132758355991e+04
7.667754132758355991e+04
7.669474903434468433e+04
7.670265527799168194e+04
7.668684279069768672e+04
7.669056337594332581e+04
7.669056337594332581e+04
7.669288874172186479e+04
7.668963322963191604e+04
7.668684279069768672e+04
7.667382074233790627e+04
7.667382074233790627e+04
7.669567918065609410e+04
7.671195674110580876e+04
7.670079498536886240e+04
7.671056152163869410e+04
7.671056152163869410e+04
7.669986483905745263e+04
7.670172513168027217e+04
7.671474718004005263e+04
7.671660747266287217e+04
7.671660747266287217e+04
7.671567732635146240e+04
7.672079313106423069e+04
7.671753761897428194e+04
7.671753761897428194e+04
7.672265342368705024e+04
7.672265342368705024e+04
7.671893283844141115e+04
7.672358356999846001e+04
7.672358356999846001e+04
7.673288503311258683e+04
7.673195488680117705e+04
7.674172142307100876e+04
7.671195674110580876e+04
7.671195674110580876e+04
7.673055966733406240e+04
7.675474347143077466e+04
7.672869937471122830e+04
7.673986113044817466e+04
7.673986113044817466e+04
7.674079127675959899e+04
7.673986113044817466e+04
7.673381517942399660e+04
7.674079127675959899e+04
7.674079127675959899e+04
7.673893098413676489e+04
7.675055781302941614e+04
7.674172142307100876e+04
7.674869752040659660e+04
7.674869752040659660e+04
7.674869752040659660e+04
7.675288317880795512e+04
7.675055781302941614e+04
7.675055781302941614e+04
7.675055781302941614e+04
7.675288317880795512e+04
7.675195303249654535e+04
7.675381332511936489e+04
7.674590708147236728e+04
7.674590708147236728e+04
7.676078942245495273e+04
7.676590522716772102e+04
7.674962766671800637e+04
7.677055595872478443e+04
7.677055595872478443e+04
7.675892912983213319e+04
7.676497508085631125e+04
7.677381147081473318e+04
7.677381147081473318e+04
7.677381147081473318e+04
7.676078942245495273e+04
7.678078756815032102e+04
7.678497322655167955e+04
7.678497322655167955e+04
7.677288132450332341e+04
7.677985742183891125e+04
7.677892727552750148e+04
7.678078756815032102e+04
7.678078756815032102e+04
7.677985742183891125e+04
7.677985742183891125e+04
7.677567176343755273e+04
7.678171771446173079e+04
7.678171771446173079e+04
7.676962581241337466e+04
7.677892727552750148e+04
7.674358171569382830e+04
7.675799898352072341e+04
7.675799898352072341e+04
7.675474347143077466e+04
7.676078942245495273e+04
7.676497508085631125e+04
7.673567547204683069e+04
7.673567547204683069e+04
7.674776737409518682e+04
7.674358171569382830e+04
7.674776737409518682e+04
7.674497693516094296e+04
7.674497693516094296e+04
7.673753576466965023e+04
7.673381517942399660e+04
7.673195488680117705e+04
7.671753761897428194e+04
7.671753761897428194e+04
7.672358356999846001e+04
7.672172327737564046e+04
7.672172327737564046e+04
7.670684093639304047e+04
7.670684093639304047e+04
7.671056152163869410e+04
7.672079313106423069e+04
7.670777108270445024e+04
7.672172327737564046e+04
7.672172327737564046e+04
7.670777108270445024e+04
7.670963137532728433e+04
7.669381888803327456e+04
7.670777108270445024e+04
7.670777108270445024e+04
7.669288874172186479e+04
7.669660932696750388e+04
7.669753947327892820e+04
7.669753947327892820e+04
7.670777108270445024e+04
7.669660932696750388e+04
7.670265527799168194e+04
7.668870308332050627e+04
7.668870308332050627e+04
7.671195674110580876e+04
7.669753947327892820e+04
7.670498064377022092e+04
7.669567918065609410e+04
7.669567918065609410e+04
7.669288874172186479e+04
7.670358542430310627e+04
7.669474903434468433e+04
7.670498064377022092e+04
7.670498064377022092e+04
7.670172513168027217e+04
7.670172513168027217e+04
7.671660747266287217e+04
7.669753947327892820e+04
7.669753947327892820e+04
7.670358542430310627e+04
7.670172513168027217e+04
7.670591079008163069e+04
7.670358542430310627e+04
7.670358542430310627e+04
7.670870122901587456e+04
7.671056152163869410e+04
7.670963137532728433e+04
7.670684093639304047e+04
7.670684093639304047e+04
7.670498064377022092e+04
7.671660747266287217e+04
7.671474718004005263e+04
7.671986298475282092e+04
7.671986298475282092e+04
7.670498064377022092e+04
7.670777108270445024e+04
7.671288688741721853e+04
7.671195674110580876e+04
7.671195674110580876e+04
7.670684093639304047e+04
7.671893283844141115e+04
7.671893283844141115e+04
7.672358356999846001e+04
7.672358356999846001e+04
7.672265342368705024e+04
7.671474718004005263e+04
7.671893283844141115e+04
7.671893283844141115e+04
7.672079313106423069e+04
7.672962952102265263e+04
7.673055966733406240e+04
7.673055966733406240e+04
7.673055966733406240e+04
7.673381517942399660e+04
7.673195488680117705e+04
7.673381517942399660e+04
7.672358356999846001e+04
7.672358356999846001e+04
7.673195488680117705e+04
7.674265156938241853e+04
7.673055966733406240e+04
7.674358171569382830e+04
7.674358171569382830e+04
7.674358171569382830e+04
7.674869752040659660e+04
7.674869752040659660e+04
7.673055966733406240e+04
7.673055966733406240e+04
7.674358171569382830e+04
7.675055781302941614e+04
7.674172142307100876e+04
7.672962952102265263e+04
7.672962952102265263e+04
7.675985927614354296e+04
7.675474347143077466e+04
7.674869752040659660e+04
7.673986113044817466e+04
7.673986113044817466e+04
7.675195303249654535e+04
7.675660376405360876e+04
7.675660376405360876e+04
7.674172142307100876e+04
7.674172142307100876e+04
7.674869752040659660e+04
7.675474347143077466e+04
7.675381332511936489e+04
7.676869566610196489e+04
7.676869566610196489e+04
7.676776551979055512e+04
7.676776551979055512e+04
7.675799898352072341e+04
7.677381147081473318e+04
7.677381147081473318e+04
7.677195117819189909e+04
7.678869381179733318e+04
7.679892542122285522e+04
7.679892542122285522e+04
7.678497322655167955e+04
7.677985742183891125e+04
7.678497322655167955e+04
7.677195117819189909e+04
7.677195117819189909e+04
7.678776366548590886e+04
7.678357800708456489e+04
7.678497322655167955e+04
7.679287947019867715e+04
7.679287947019867715e+04
7.679380961651008693e+04
7.678171771446173079e+04
7.677985742183891125e+04
7.678264786077314056e+04
7.678264786077314056e+04
7.678590337286308932e+04
7.678590337286308932e+04
7.679566990913292102e+04
7.678357800708456489e+04
7.678357800708456489e+04
7.680264600646850886e+04
7.679194932388726738e+04
7.680683166486986738e+04
7.677799712921609171e+04
7.677799712921609171e+04
7.680078571384568932e+04
7.679799527491144545e+04
7.679380961651008693e+04
7.678078756815032102e+04
7.678078756815032102e+04
7.678962395810874295e+04
7.678869381179733318e+04
7.679380961651008693e+04
7.679892542122285522e+04
7.679892542122285522e+04
7.679473976282151125e+04
7.678776366548590886e+04
7.680869195749268692e+04
7.679892542122285522e+04
7.679892542122285522e+04
7.680683166486986738e+04
7.680264600646850886e+04
7.680776181118127715e+04
7.680497137224704784e+04
7.680497137224704784e+04
7.680171586015709909e+04
7.681194746958263568e+04
7.680590151855845761e+04
7.680590151855845761e+04
7.680962210380409670e+04
7.683055039581087476e+04
7.680869195749268692e+04
7.683659634683505283e+04
7.683659634683505283e+04
7.681799342060681374e+04
7.682357429847528692e+04
7.680869195749268692e+04
7.682775995687664545e+04
7.682775995687664545e+04
7.682078385954104306e+04
7.682682981056523568e+04
7.682589966425381135e+04
7.681985371322963329e+04
7.681985371322963329e+04
7.682357429847528692e+04
7.683287576158941374e+04
7.682496951794240158e+04
7.682264415216387715e+04
7.682264415216387715e+04
7.683892171261359181e+04
7.683473605421223328e+04
7.685287390728476748e+04
7.683985185892500158e+04
7.683985185892500158e+04
7.684961839519483328e+04
7.685194376097335771e+04
7.683380590790082351e+04
7.687566249191437964e+04
7.687566249191437964e+04
7.685287390728476748e+04
7.685287390728476748e+04
7.685054854150624305e+04
7.686357058986600896e+04
7.686357058986600896e+04
7.686961654089020158e+04
7.685891985830896010e+04
7.685659449253042112e+04
7.685985000462036987e+04
7.685985000462036987e+04
7.686775624826736748e+04
7.684868824888342351e+04
7.686171029724318942e+04
7.686171029724318942e+04
7.686496580933313817e+04
7.686775624826736748e+04
7.687798785769290407e+04
7.686775624826736748e+04
7.686775624826736748e+04
7.688263858924996748e+04
7.686682610195595771e+04
7.687473234560296987e+04
7.687194190666872601e+04
7.687194190666872601e+04
7.687798785769290407e+04
7.687984815031572361e+04
7.687798785769290407e+04
7.687566249191437964e+04
7.687566249191437964e+04
7.688682424765132600e+04
7.689380034498691384e+04
7.689054483289696509e+04
7.689798600338827237e+04
7.689798600338827237e+04
7.690077644232250168e+04
7.689984629601109191e+04
7.689984629601109191e+04
7.690170658863392600e+04
7.690170658863392600e+04
7.689659078392115771e+04
7.691379849068228214e+04
7.690961283228092361e+04
7.691054297859233338e+04
7.691054297859233338e+04
7.690589224703526997e+04
7.691379849068228214e+04
7.691891429539505043e+04
7.691891429539505043e+04
7.691891429539505043e+04
7.692496024641922850e+04
7.691565878330510168e+04
7.692961097797629191e+04
7.692961097797629191e+04
7.692961097797629191e+04
7.693054112428770168e+04
7.692682053904204804e+04
7.693054112428770168e+04
7.691379849068228214e+04
7.691379849068228214e+04
7.692589039273063827e+04
7.691658892961651145e+04
7.692589039273063827e+04
7.692589039273063827e+04
7.693658707531187974e+04
7.692961097797629191e+04
7.692775068535345781e+04
7.693472678268906020e+04
7.693472678268906020e+04
7.693798229477899440e+04
7.692496024641922850e+04
7.694170288002464804e+04
7.693565692900046997e+04
7.693565692900046997e+04
7.693891244109040417e+04
7.694077273371323827e+04
7.693472678268906020e+04
7.693565692900046997e+04
7.693565692900046997e+04
7.695565507469583827e+04
7.694774883104882610e+04
7.695286463576159440e+04
7.695286463576159440e+04
7.695286463576159440e+04
7.696263117203142610e+04
7.696077087940860656e+04
7.694681868473741633e+04
7.693658707531187974e+04
7.693658707531187974e+04
7.694495839211459679e+04
7.696960726936701394e+04
7.695193448945018463e+04
7.696077087940860656e+04
7.696077087940860656e+04
7.696960726936701394e+04
7.697286278145696269e+04
7.695984073309718224e+04
7.696774697674419440e+04
7.696774697674419440e+04
7.696867712305560417e+04
7.697286278145696269e+04
7.697565322039119201e+04
7.697379292776837246e+04
7.697379292776837246e+04
7.697565322039119201e+04
7.698076902510396030e+04
7.699053556137379201e+04
7.698867526875097246e+04
7.698867526875097246e+04
7.697890873248114076e+04
7.698681497612813837e+04
7.698774512243956269e+04
7.698774512243956269e+04
7.699379107346374076e+04
7.699053556137379201e+04
7.699472121977515053e+04
7.699472121977515053e+04
7.699472121977515053e+04
7.699658151239797007e+04
7.699286092715231644e+04
7.699193078084090666e+04
7.699193078084090666e+04
7.699193078084090666e+04
7.699983702448791882e+04
7.699890687817650905e+04
7.699890687817650905e+04
7.699658151239797007e+04
7.699658151239797007e+04
7.699890687817650905e+04
7.701192892653627496e+04
7.700588297551209689e+04
7.700076717079932860e+04
7.700076717079932860e+04
7.700681312182350666e+04
7.700774326813491643e+04
7.700681312182350666e+04
7.701797487756045302e+04
7.701797487756045302e+04
7.701890502387186280e+04
7.700262746342214814e+04
7.701564951178192860e+04
7.701797487756045302e+04
7.701797487756045302e+04
7.703471751116587257e+04
7.702681126751887496e+04
7.702867156014169450e+04
7.702774141383028473e+04
7.702774141383028473e+04
7.702681126751887496e+04
7.702681126751887496e+04
7.704494912059140916e+04
7.703983331587864086e+04
7.703983331587864086e+04
7.702867156014169450e+04
7.702681126751887496e+04
7.703890316956723109e+04
7.704680941321424325e+04
7.704680941321424325e+04
7.704355390112429450e+04
7.702681126751887496e+04
7.702169546280610666e+04
7.702169546280610666e+04
7.701890502387186280e+04
7.702774141383028473e+04
7.702076531649469689e+04
7.701983517018328712e+04
7.701983517018328712e+04
7.701285907284768473e+04
7.700867341444632621e+04
7.700076717079932860e+04
7.700169731711073837e+04
7.700169731711073837e+04
7.699053556137379201e+04
7.698960541506238224e+04
7.698774512243956269e+04
7.696960726936701394e+04
7.696960726936701394e+04
7.697472307407978224e+04
7.697286278145696269e+04
7.696774697674419440e+04
7.695286463576159440e+04
7.695286463576159440e+04
7.695984073309718224e+04
7.694077273371323827e+04
7.696263117203142610e+04
7.695379478207300417e+04
7.695379478207300417e+04
7.695658522100724804e+04
7.695798044047436269e+04
7.695193448945018463e+04
7.694681868473741633e+04
7.694681868473741633e+04
7.693565692900046997e+04
7.694960912367164565e+04
7.694960912367164565e+04
7.694960912367164565e+04
7.694960912367164565e+04
7.696170102572001633e+04
7.694960912367164565e+04
7.694495839211459679e+04
7.695379478207300417e+04
7.695379478207300417e+04
7.695798044047436269e+04
7.695053926998306997e+04
7.695798044047436269e+04
7.696263117203142610e+04
7.696263117203142610e+04
7.695984073309718224e+04
7.696588668412136030e+04
7.696077087940860656e+04
7.696077087940860656e+04
7.696774697674419440e+04
7.695891058678577247e+04
7.696356131834283588e+04
7.695472492838441394e+04
7.695472492838441394e+04
7.696263117203142610e+04
7.696495653780995053e+04
7.697286278145696269e+04
7.696170102572001633e+04
7.696170102572001633e+04
7.696356131834283588e+04
7.697053741567842371e+04
7.696170102572001633e+04
7.696077087940860656e+04
7.696077087940860656e+04
7.697053741567842371e+04
7.697379292776837246e+04
7.698867526875097246e+04
7.697658336670260178e+04
7.697658336670260178e+04
7.697565322039119201e+04
7.698076902510396030e+04
7.697983887879255053e+04
7.697193263514555292e+04
7.697193263514555292e+04
7.697797858616973099e+04
7.698355946403820417e+04
7.698681497612813837e+04
7.697565322039119201e+04
7.697565322039119201e+04
7.698681497612813837e+04
7.699193078084090666e+04
7.699286092715231644e+04
7.697658336670260178e+04
7.697658336670260178e+04
7.698169917141537007e+04
7.698774512243956269e+04
7.699472121977515053e+04
7.700169731711073837e+04
7.700169731711073837e+04
7.697983887879255053e+04
7.699193078084090666e+04
7.700262746342214814e+04
7.699983702448791882e+04
7.699983702448791882e+04
7.699053556137379201e+04
7.699565136608656030e+04
7.699797673186508473e+04
7.699797673186508473e+04
7.699053556137379201e+04
7.698588482981672860e+04
7.698960541506238224e+04
7.699193078084090666e+04
7.699193078084090666e+04
7.699193078084090666e+04
7.698355946403820417e+04
7.699379107346374076e+04
7.699658151239797007e+04
7.699658151239797007e+04
7.699658151239797007e+04
7.699472121977515053e+04
7.700262746342214814e+04
7.701099878022486519e+04
7.701099878022486519e+04
7.700495282920068712e+04
7.701378921915909450e+04
7.701099878022486519e+04
7.699797673186508473e+04
7.699797673186508473e+04
7.702262560911751643e+04
7.700774326813491643e+04
7.702774141383028473e+04
7.701471936547051882e+04
7.701471936547051882e+04
7.701657965809333837e+04
7.701657965809333837e+04
7.702867156014169450e+04
7.702076531649469689e+04
7.702076531649469689e+04
7.702495097489604086e+04
7.701797487756045302e+04
7.701797487756045302e+04
7.702867156014169450e+04
7.702867156014169450e+04
7.701099878022486519e+04
7.702169546280610666e+04
7.702262560911751643e+04
7.702169546280610666e+04
7.702169546280610666e+04
7.701564951178192860e+04
7.701564951178192860e+04
7.702681126751887496e+04
7.701099878022486519e+04
7.701099878022486519e+04
7.702774141383028473e+04
7.703099692592023348e+04
7.702960170645310427e+04
7.702960170645310427e+04
7.704355390112429450e+04
7.703378736485446279e+04
7.703285721854305302e+04
7.702681126751887496e+04
7.702681126751887496e+04
7.702774141383028473e+04
7.702774141383028473e+04
7.704169360850147496e+04
7.702960170645310427e+04
7.702960170645310427e+04
7.702774141383028473e+04
7.702867156014169450e+04
7.701471936547051882e+04
7.701890502387186280e+04
7.701890502387186280e+04
7.702867156014169450e+04
7.702262560911751643e+04
7.702867156014169450e+04
7.702588112120746518e+04
7.702588112120746518e+04
7.703564765747728234e+04
7.703099692592023348e+04
7.702774141383028473e+04
7.703285721854305302e+04
7.703285721854305302e+04
7.702355575542892620e+04
7.702355575542892620e+04
7.702588112120746518e+04
7.701471936547051882e+04
7.701471936547051882e+04
7.702867156014169450e+04
7.703378736485446279e+04
7.702495097489604086e+04
7.702588112120746518e+04
7.702588112120746518e+04
7.702495097489604086e+04
7.703657780378870666e+04
7.704262375481288473e+04
7.703983331587864086e+04
7.703983331587864086e+04
7.703890316956723109e+04
7.703471751116587257e+04
7.704680941321424325e+04
7.704866970583706279e+04
7.704866970583706279e+04
7.702867156014169450e+04
7.703564765747728234e+04
7.704262375481288473e+04
7.704262375481288473e+04
7.704959985214847256e+04
7.705192521792699699e+04
7.704169360850147496e+04
7.704494912059140916e+04
7.704494912059140916e+04
7.704587926690281893e+04
7.704169360850147496e+04
7.704680941321424325e+04
7.705657594948406040e+04
7.705657594948406040e+04
7.705099507161558722e+04
7.704494912059140916e+04
7.704773955952565302e+04
7.704866970583706279e+04
7.704866970583706279e+04
7.706169175419682870e+04
7.706169175419682870e+04
7.706355204681966279e+04
7.705983146157400915e+04
7.705983146157400915e+04
7.706680755890959699e+04
7.706959799784384086e+04
7.707564394886801892e+04
7.705890131526259938e+04
7.705890131526259938e+04
7.705890131526259938e+04
7.706494726628677745e+04
7.706355204681966279e+04
7.705797116895118961e+04
7.705797116895118961e+04
7.706494726628677745e+04
7.707285350993377506e+04
7.706773770522100676e+04
7.706680755890959699e+04
7.706680755890959699e+04
7.706959799784384086e+04
7.707285350993377506e+04
7.709285165562914335e+04
7.707099321731095552e+04
7.707099321731095552e+04
7.707657409517942870e+04
7.709099136300632381e+04
7.707285350993377506e+04
7.707889946095796768e+04
7.707889946095796768e+04
7.708262004620360676e+04
7.707796931464654335e+04
7.708262004620360676e+04
7.708262004620360676e+04
7.709796746034191165e+04
7.710773399661174335e+04
7.708866599722778483e+04
7.708680570460496529e+04
7.708680570460496529e+04
7.710261819189897506e+04
7.709889760665332142e+04
7.709982775296473119e+04
7.710773399661174335e+04
7.710773399661174335e+04
7.709471194825196289e+04
7.710680385030033358e+04
7.709378180194055312e+04
7.707564394886801892e+04
7.707564394886801892e+04
7.709099136300632381e+04
7.709982775296473119e+04
7.710494355767749948e+04
7.709564209456338722e+04
7.709564209456338722e+04
7.710587370398892381e+04
7.710168804558756528e+04
7.710494355767749948e+04
7.710494355767749948e+04
7.710494355767749948e+04
7.709889760665332142e+04
7.709378180194055312e+04
7.710354833821038483e+04
7.709471194825196289e+04
7.709471194825196289e+04
7.709471194825196289e+04
7.709889760665332142e+04
7.710261819189897506e+04
7.709192150931773358e+04
7.709192150931773358e+04
7.710680385030033358e+04
7.710587370398892381e+04
7.711377994763592142e+04
7.711982589866009948e+04
7.711982589866009948e+04
7.711284980132451165e+04
7.711284980132451165e+04
7.710680385030033358e+04
7.711982589866009948e+04
7.711982589866009948e+04
7.710866414292315312e+04
7.711284980132451165e+04
7.711471009394733119e+04
7.711471009394733119e+04
7.711564024025874096e+04
7.710773399661174335e+04
7.711471009394733119e+04
7.711377994763592142e+04
7.711377994763592142e+04
7.711796560603727994e+04
7.711889575234868971e+04
7.712587184968427755e+04
7.712587184968427755e+04
7.712587184968427755e+04
7.711098950870167755e+04
7.713098765439704584e+04
7.712168619128291903e+04
7.712494170337286778e+04
7.712494170337286778e+04
7.712587184968427755e+04
7.712075604497150925e+04
7.711889575234868971e+04
7.712494170337286778e+04
7.712494170337286778e+04
7.713098765439704584e+04
7.712959243492993119e+04
7.713563838595410925e+04
7.713563838595410925e+04
7.713563838595410925e+04
7.713470823964269948e+04
7.714261448328969709e+04
7.712494170337286778e+04
7.713098765439704584e+04
7.713098765439704584e+04
7.712587184968427755e+04
7.717284423841060197e+04
7.713889389804405801e+04
7.713796375173263368e+04
7.713796375173263368e+04
7.712354648390575312e+04
7.714168433697828732e+04
7.714261448328969709e+04
7.714866043431387516e+04
7.714866043431387516e+04
7.715098580009241414e+04
7.713656853226551902e+04
7.714493984906823607e+04
7.712494170337286778e+04
7.712494170337286778e+04
7.715098580009241414e+04
7.714680014169105561e+04
7.714075419066687755e+04
7.714075419066687755e+04
7.714773028800246539e+04
7.713656853226551902e+04
7.713284794701987994e+04
7.713563838595410925e+04
7.713563838595410925e+04
7.713470823964269948e+04
7.712866228861852142e+04
7.710354833821038483e+04
7.711284980132451165e+04
7.711284980132451165e+04
7.710959428923456289e+04
7.710680385030033358e+04
7.710494355767749948e+04
7.709982775296473119e+04
7.709982775296473119e+04
7.710168804558756528e+04
7.710075789927615551e+04
7.711098950870167755e+04
7.708355019251501653e+04
7.708355019251501653e+04
7.709099136300632381e+04
7.709378180194055312e+04
7.709192150931773358e+04
7.708587555829355551e+04
7.708587555829355551e+04
7.707796931464654335e+04
7.709889760665332142e+04
7.708075975358078722e+04
7.707657409517942870e+04
7.707657409517942870e+04
7.708262004620360676e+04
7.707796931464654335e+04
7.708168989989219699e+04
7.706355204681966279e+04
7.706355204681966279e+04
7.707285350993377506e+04
7.708494541198214574e+04
7.707657409517942870e+04
7.708680570460496529e+04
7.708680570460496529e+04
7.707889946095796768e+04
7.707471380255660915e+04
7.707982960726937745e+04
7.709192150931773358e+04
7.709192150931773358e+04
7.707192336362236529e+04
7.708168989989219699e+04
7.708680570460496529e+04
7.708680570460496529e+04
7.709285165562914335e+04
7.708355019251501653e+04
7.709192150931773358e+04
7.708680570460496529e+04
7.708680570460496529e+04
7.708587555829355551e+04
7.708866599722778483e+04
7.709192150931773358e+04
7.708075975358078722e+04
7.708075975358078722e+04
7.709378180194055312e+04
7.708773585091637506e+04
7.711982589866009948e+04
7.709192150931773358e+04
7.709192150931773358e+04
7.709796746034191165e+04
7.709889760665332142e+04
7.709471194825196289e+04
7.708494541198214574e+04
7.708494541198214574e+04
7.709796746034191165e+04
7.708680570460496529e+04
7.710494355767749948e+04
7.708773585091637506e+04
7.708773585091637506e+04
7.708494541198214574e+04
7.710773399661174335e+04
7.710354833821038483e+04
7.709471194825196289e+04
7.709471194825196289e+04
7.710773399661174335e+04
7.710680385030033358e+04
7.710587370398892381e+04
7.710866414292315312e+04
7.710866414292315312e+04
7.710866414292315312e+04
7.710587370398892381e+04
7.711377994763592142e+04
7.712261633759434335e+04
7.712261633759434335e+04
7.710866414292315312e+04
7.711191965501310187e+04
7.710587370398892381e+04
7.710587370398892381e+04
7.713377809333128971e+04
7.711657038657016528e+04
7.711796560603727994e+04
7.711796560603727994e+04
7.711796560603727994e+04
7.712866228861852142e+04
7.712168619128291903e+04
7.711471009394733119e+04
7.711471009394733119e+04
7.711471009394733119e+04
7.713563838595410925e+04
7.712354648390575312e+04
7.711657038657016528e+04
7.712866228861852142e+04
7.712866228861852142e+04
7.711471009394733119e+04
7.712075604497150925e+04
7.712075604497150925e+04
7.712354648390575312e+04
7.712354648390575312e+04
7.712680199599568732e+04
7.710959428923456289e+04
7.713098765439704584e+04
7.711796560603727994e+04
7.711796560603727994e+04
7.713470823964269948e+04
7.713377809333128971e+04
7.712866228861852142e+04
7.711284980132451165e+04
7.711284980132451165e+04
7.713563838595410925e+04
7.713470823964269948e+04
7.714075419066687755e+04
7.712959243492993119e+04
7.712959243492993119e+04
7.714354462960112141e+04
7.714354462960112141e+04
7.713563838595410925e+04
7.713098765439704584e+04
7.713098765439704584e+04
7.714493984906823607e+04
7.713656853226551902e+04
7.714866043431387516e+04
7.715982219005083607e+04
7.715982219005083607e+04
7.714773028800246539e+04
7.714773028800246539e+04
7.715563653164947755e+04
7.715563653164947755e+04
7.715470638533806778e+04
7.715796189742800198e+04
7.715563653164947755e+04
7.714354462960112141e+04
7.714354462960112141e+04
7.714959058062529948e+04
7.714493984906823607e+04
7.714493984906823607e+04
7.714261448328969709e+04
7.714261448328969709e+04
7.714493984906823607e+04
7.714354462960112141e+04
7.714959058062529948e+04
7.714680014169105561e+04
7.714680014169105561e+04
7.714261448328969709e+04
7.712773214230711164e+04
7.712959243492993119e+04
7.713284794701987994e+04
7.713284794701987994e+04
7.713889389804405801e+04
7.712680199599568732e+04
7.713796375173263368e+04
7.711191965501310187e+04
7.711191965501310187e+04
7.713377809333128971e+04
7.714354462960112141e+04
7.714354462960112141e+04
7.713656853226551902e+04
7.713656853226551902e+04
7.713377809333128971e+04
7.714680014169105561e+04
7.715284609271523368e+04
7.713470823964269948e+04
7.713470823964269948e+04
7.714773028800246539e+04
7.715377623902664345e+04
7.714586999537964584e+04
7.713889389804405801e+04
7.713889389804405801e+04
7.714493984906823607e+04
7.714493984906823607e+04
7.714680014169105561e+04
7.715377623902664345e+04
7.715377623902664345e+04
7.714354462960112141e+04
7.714959058062529948e+04
7.715470638533806778e+04
7.715470638533806778e+04
7.715656667796088732e+04
7.715796189742800198e+04
7.715889204373941175e+04
7.716354277529647516e+04
7.716354277529647516e+04
7.715982219005083607e+04
7.715656667796088732e+04
7.716772843369783368e+04
7.714866043431387516e+04
7.714866043431387516e+04
7.716586814107501414e+04
7.716865858000924345e+04
7.715889204373941175e+04
7.715191594640382391e+04
7.715191594640382391e+04
7.716261262898506538e+04
7.716075233636224584e+04
7.716075233636224584e+04
7.715982219005083607e+04
7.715982219005083607e+04
7.717563467734484584e+04
7.716261262898506538e+04
7.714959058062529948e+04
7.714959058062529948e+04
7.714959058062529948e+04
7.716354277529647516e+04
7.716586814107501414e+04
7.716075233636224584e+04
7.717889018943478004e+04
7.717889018943478004e+04
7.717889018943478004e+04
7.717377438472201175e+04
7.716772843369783368e+04
7.717377438472201175e+04
7.717377438472201175e+04
7.717796004312337027e+04
7.718261077468043368e+04
7.718261077468043368e+04
7.717889018943478004e+04
7.717889018943478004e+04
7.717377438472201175e+04
7.718865672570461174e+04
7.718261077468043368e+04
7.718261077468043368e+04
7.718261077468043368e+04
7.718261077468043368e+04
7.718586628677036788e+04
7.718586628677036788e+04
7.718586628677036788e+04
7.720074862775296788e+04
7.719656296935160935e+04
7.718075048205759958e+04
7.718772657939320197e+04
7.718772657939320197e+04
7.717796004312337027e+04
7.718958687201602152e+04
7.718958687201602152e+04
7.719795818881873856e+04
7.719795818881873856e+04
7.720865487139998004e+04
7.719981848144155811e+04
7.720958501771138981e+04
7.719981848144155811e+04
7.719981848144155811e+04
7.721377067611274833e+04
7.720353906668721174e+04
7.720353906668721174e+04
7.719656296935160935e+04
7.719656296935160935e+04
7.720958501771138981e+04
7.719377253041738004e+04
7.719981848144155811e+04
7.719656296935160935e+04
7.719656296935160935e+04
7.720958501771138981e+04
7.720493428615432640e+04
7.721470082242415810e+04
7.721191038348991424e+04
7.721191038348991424e+04
7.721795633451409230e+04
7.721656111504697765e+04
7.722772287078392401e+04
7.722260706607115571e+04
7.722260706607115571e+04
7.722772287078392401e+04
7.721656111504697765e+04
7.722865301709533378e+04
7.721377067611274833e+04
7.721377067611274833e+04
7.721191038348991424e+04
7.721098023717850447e+04
7.721377067611274833e+04
7.722772287078392401e+04
7.722772287078392401e+04
7.721563096873556788e+04
7.722865301709533378e+04
7.722074677344833617e+04
7.722074677344833617e+04
7.722586257816110447e+04
7.721377067611274833e+04
7.721656111504697765e+04
7.721981662713692640e+04
7.721981662713692640e+04
7.723190852918528253e+04
7.722167691975974594e+04
7.723097838287387276e+04
7.722865301709533378e+04
7.722865301709533378e+04
7.723981477283228014e+04
7.723283867549669230e+04
7.722260706607115571e+04
7.723097838287387276e+04
7.723097838287387276e+04
7.723097838287387276e+04
7.723097838287387276e+04
7.722865301709533378e+04
7.722958316340675810e+04
7.722958316340675810e+04
7.723795448020946060e+04
7.723097838287387276e+04
7.725097652856924105e+04
7.722074677344833617e+04
7.722074677344833617e+04
7.723981477283228014e+04
7.724074491914370446e+04
7.723655926074234594e+04
7.723190852918528253e+04
7.723190852918528253e+04
7.724074491914370446e+04
7.724260521176652401e+04
7.724586072385647276e+04
7.725283682119206060e+04
7.725283682119206060e+04
7.724493057754504844e+04
7.724865116279070207e+04
7.724586072385647276e+04
7.725655740643771423e+04
7.725655740643771423e+04
7.725562726012628991e+04
7.725097652856924105e+04
7.724074491914370446e+04
7.725283682119206060e+04
7.725283682119206060e+04
7.725795262590482889e+04
7.725469711381488014e+04
7.725795262590482889e+04
7.725795262590482889e+04
7.725562726012628991e+04
7.725795262590482889e+04
7.725981291852764843e+04
7.725888277221623866e+04
7.725888277221623866e+04
7.726260335746189230e+04
7.724865116279070207e+04
7.725888277221623866e+04
7.724958130910211185e+04
7.724958130910211185e+04
7.724772101647929230e+04
7.723795448020946060e+04
7.724260521176652401e+04
7.723469896811951185e+04
7.723469896811951185e+04
7.722679272447251424e+04
7.723190852918528253e+04
7.723888462652087037e+04
7.722353721238256549e+04
7.722353721238256549e+04
7.721191038348991424e+04
7.722167691975974594e+04
7.721377067611274833e+04
7.719563282304019958e+04
7.719563282304019958e+04
7.720958501771138981e+04
7.721563096873556788e+04
7.720167877406437765e+04
7.718679643308179220e+04
7.718679643308179220e+04
7.719098209148313617e+04
7.719981848144155811e+04
7.719795818881873856e+04
7.719191223779456050e+04
7.719191223779456050e+04
7.719470267672878981e+04
7.718261077468043368e+04
7.719888833513014833e+04
7.720167877406437765e+04
7.720167877406437765e+04
7.720074862775296788e+04
7.718261077468043368e+04
7.719284238410597027e+04
7.719284238410597027e+04
7.719284238410597027e+04
7.719284238410597027e+04
7.718772657939320197e+04
7.719284238410597027e+04
7.719284238410597027e+04
7.719191223779456050e+04
7.718261077468043368e+04
7.718586628677036788e+04
7.718958687201602152e+04
7.718958687201602152e+04
7.719098209148313617e+04
7.718493614045895811e+04
7.718865672570461174e+04
7.718493614045895811e+04
7.718493614045895811e+04
7.717656482365625561e+04
7.718865672570461174e+04
7.718586628677036788e+04
7.718168062836902391e+04
7.718168062836902391e+04
7.716679828738642391e+04
7.717098394578778243e+04
7.719377253041738004e+04
7.719191223779456050e+04
7.719191223779456050e+04
7.718772657939320197e+04
7.718772657939320197e+04
7.718679643308179220e+04
7.718354092099184345e+04
7.718354092099184345e+04
7.719284238410597027e+04
7.719795818881873856e+04
7.718354092099184345e+04
7.718772657939320197e+04
7.718772657939320197e+04
7.719284238410597027e+04
7.719284238410597027e+04
7.719098209148313617e+04
7.719098209148313617e+04
7.719098209148313617e+04
7.720074862775296788e+04
7.720074862775296788e+04
7.718865672570461174e+04
7.719656296935160935e+04
7.719656296935160935e+04
7.720772472508855572e+04
7.719888833513014833e+04
7.720260892037580197e+04
7.720260892037580197e+04
7.720493428615432640e+04
7.719470267672878981e+04
7.719098209148313617e+04
7.719981848144155811e+04
7.719981848144155811e+04
7.719470267672878981e+04
7.719098209148313617e+04
7.721191038348991424e+04
7.720074862775296788e+04
7.720074862775296788e+04
7.720493428615432640e+04
7.720493428615432640e+04
7.720074862775296788e+04
7.719563282304019958e+04
7.719563282304019958e+04
7.720865487139998004e+04
7.719098209148313617e+04
7.719981848144155811e+04
7.719377253041738004e+04
7.719377253041738004e+04
7.721098023717850447e+04
7.719981848144155811e+04
7.721098023717850447e+04
7.719470267672878981e+04
7.719470267672878981e+04
7.720772472508855572e+04
7.721656111504697765e+04
7.719377253041738004e+04
7.720167877406437765e+04
7.720167877406437765e+04
7.720679457877714594e+04
7.720772472508855572e+04
7.719656296935160935e+04
7.720167877406437765e+04
7.720167877406437765e+04
7.720493428615432640e+04
7.721377067611274833e+04
7.721377067611274833e+04
7.721656111504697765e+04
7.721656111504697765e+04
7.721284052980132401e+04
7.721098023717850447e+04
7.721284052980132401e+04
7.723376882180810208e+04
7.723376882180810208e+04
7.721888648082551663e+04
7.722353721238256549e+04
7.722493243184969469e+04
7.722493243184969469e+04
7.722772287078392401e+04
7.723283867549669230e+04
7.722493243184969469e+04
7.722772287078392401e+04
7.722772287078392401e+04
7.723190852918528253e+04
7.721191038348991424e+04
7.722586257816110447e+04
7.722493243184969469e+04
7.722493243184969469e+04
7.722958316340675810e+04
7.722586257816110447e+04
7.723655926074234594e+04
7.721981662713692640e+04
7.721981662713692640e+04
7.722679272447251424e+04
7.723283867549669230e+04
7.723097838287387276e+04
7.722493243184969469e+04
7.722493243184969469e+04
7.722074677344833617e+04
7.723097838287387276e+04
7.724074491914370446e+04
7.722586257816110447e+04
7.722586257816110447e+04
7.722772287078392401e+04
7.722772287078392401e+04
7.724493057754504844e+04
7.722167691975974594e+04
7.722167691975974594e+04
7.722167691975974594e+04
7.721656111504697765e+04
7.722260706607115571e+04
7.722865301709533378e+04
7.722865301709533378e+04
7.721888648082551663e+04
7.722493243184969469e+04
7.722353721238256549e+04
7.722958316340675810e+04
7.722958316340675810e+04
7.721795633451409230e+04
7.722167691975974594e+04
7.721981662713692640e+04
7.721981662713692640e+04
7.721470082242415810e+04
7.721656111504697765e+04
7.721981662713692640e+04
7.721888648082551663e+04
7.721888648082551663e+04
7.721981662713692640e+04
7.722586257816110447e+04
7.722074677344833617e+04
7.722167691975974594e+04
7.722167691975974594e+04
7.722353721238256549e+04
7.723283867549669230e+04
7.723190852918528253e+04
7.723283867549669230e+04
7.723283867549669230e+04
7.721981662713692640e+04
7.723190852918528253e+04
7.722865301709533378e+04
7.721563096873556788e+04
7.721563096873556788e+04
7.722865301709533378e+04
7.722353721238256549e+04
7.723097838287387276e+04
7.722586257816110447e+04
7.722586257816110447e+04
7.723283867549669230e+04
7.723190852918528253e+04
7.722586257816110447e+04
7.721377067611274833e+04
7.721377067611274833e+04
7.721795633451409230e+04
7.722586257816110447e+04
7.722772287078392401e+04
7.723376882180810208e+04
7.723376882180810208e+04
7.723376882180810208e+04
7.722074677344833617e+04
7.720958501771138981e+04
7.723283867549669230e+04
7.723283867549669230e+04
7.722679272447251424e+04
7.724167506545511424e+04
7.723795448020946060e+04
7.723981477283228014e+04
7.723981477283228014e+04
7.724679087016788253e+04
7.724353535807793378e+04
7.724679087016788253e+04
7.724679087016788253e+04
7.725562726012628991e+04
7.725888277221623866e+04
7.725655740643771423e+04
7.724958130910211185e+04
7.724958130910211185e+04
7.725981291852764843e+04
7.725562726012628991e+04
7.725655740643771423e+04
7.725376696750347037e+04
7.725376696750347037e+04
7.725888277221623866e+04
7.724586072385647276e+04
7.726167321115048253e+04
7.726957945479748014e+04
7.726957945479748014e+04
7.725795262590482889e+04
7.726678901586323627e+04
7.726585886955182650e+04
7.725376696750347037e+04
7.725376696750347037e+04
7.725795262590482889e+04
7.726957945479748014e+04
7.726957945479748014e+04
7.725981291852764843e+04
7.725981291852764843e+04
7.726399857692900696e+04
7.727190482057600457e+04
7.726492872324041673e+04
7.726260335746189230e+04
7.726260335746189230e+04
7.727097467426459480e+04
7.727981106422301673e+04
7.726771916217466060e+04
7.726167321115048253e+04
7.726167321115048253e+04
7.728260150315724604e+04
7.726771916217466060e+04
7.725795262590482889e+04
7.726957945479748014e+04
7.726957945479748014e+04
7.727795077160019719e+04
7.727469525951024843e+04
7.726399857692900696e+04
7.727981106422301673e+04
7.727981106422301673e+04
7.728678716155860457e+04
7.726074306483905821e+04
7.727469525951024843e+04
7.727469525951024843e+04
7.727376511319883866e+04
7.728167135684583627e+04
7.728771730787001434e+04
7.726492872324041673e+04
7.726492872324041673e+04
7.728585701524719479e+04
7.728678716155860457e+04
7.726492872324041673e+04
7.726864930848607037e+04
7.726864930848607037e+04
7.727562540582165821e+04
7.726260335746189230e+04
7.726864930848607037e+04
7.727655555213306798e+04
7.727655555213306798e+04
7.728260150315724604e+04
7.727795077160019719e+04
7.728260150315724604e+04
7.724772101647929230e+04
7.724772101647929230e+04
7.727562540582165821e+04
7.728074121053442650e+04
7.728492686893578502e+04
7.726678901586323627e+04
7.726678901586323627e+04
7.726678901586323627e+04
7.728074121053442650e+04
7.728260150315724604e+04
7.726399857692900696e+04
7.726399857692900696e+04
7.729097281995996309e+04
7.728074121053442650e+04
7.728492686893578502e+04
7.727283496688742889e+04
7.727283496688742889e+04
7.729190296627137286e+04
7.728957760049284843e+04
7.728864745418143866e+04
7.728585701524719479e+04
7.728585701524719479e+04
7.728585701524719479e+04
7.727888091791160696e+04
7.728399672262437525e+04
7.728864745418143866e+04
7.728864745418143866e+04
7.729283311258278263e+04
7.728074121053442650e+04
7.729655369782843627e+04
7.729655369782843627e+04
7.730259964885261434e+04
7.728957760049284843e+04
7.730073935622979479e+04
7.728771730787001434e+04
7.728771730787001434e+04
7.730166950254120457e+04
7.729980920991838502e+04
7.729376325889419240e+04
7.730585516094256309e+04
7.730585516094256309e+04
7.728864745418143866e+04
7.728074121053442650e+04
7.728585701524719479e+04
7.728074121053442650e+04
7.728074121053442650e+04
7.728771730787001434e+04
7.727981106422301673e+04
7.728864745418143866e+04
7.726771916217466060e+04
7.726771916217466060e+04
7.727655555213306798e+04
7.727562540582165821e+04
7.725888277221623866e+04
7.726678901586323627e+04
7.726678901586323627e+04
7.727190482057600457e+04
7.726074306483905821e+04
7.726678901586323627e+04
7.724493057754504844e+04
7.724493057754504844e+04
7.724865116279070207e+04
7.724772101647929230e+04
7.724074491914370446e+04
7.724586072385647276e+04
7.724586072385647276e+04
7.724493057754504844e+04
7.724167506545511424e+04
7.723981477283228014e+04
7.722772287078392401e+04
7.722772287078392401e+04
7.723097838287387276e+04
7.722772287078392401e+04
7.722679272447251424e+04
7.722679272447251424e+04
7.723655926074234594e+04
7.723190852918528253e+04
7.723562911443093617e+04
7.721563096873556788e+04
7.721563096873556788e+04
7.721656111504697765e+04
7.721563096873556788e+04
7.721795633451409230e+04
7.721981662713692640e+04
7.721981662713692640e+04
7.722493243184969469e+04
7.721377067611274833e+04
7.722493243184969469e+04
7.722493243184969469e+04
7.722493243184969469e+04
7.723283867549669230e+04
7.722958316340675810e+04
7.721981662713692640e+04
7.722586257816110447e+04
7.722586257816110447e+04
7.722958316340675810e+04
7.722679272447251424e+04
7.722679272447251424e+04
7.722167691975974594e+04
7.722167691975974594e+04
7.723469896811951185e+04
7.722260706607115571e+04
7.723190852918528253e+04
7.721563096873556788e+04
7.721563096873556788e+04
7.723655926074234594e+04
7.723097838287387276e+04
7.723795448020946060e+04
7.723981477283228014e+04
7.723981477283228014e+04
7.724586072385647276e+04
7.722958316340675810e+04
7.725097652856924105e+04
7.725097652856924105e+04
7.725097652856924105e+04
7.725097652856924105e+04
7.723655926074234594e+04
7.723981477283228014e+04
7.724586072385647276e+04
7.724586072385647276e+04
7.725097652856924105e+04
7.724260521176652401e+04
7.725097652856924105e+04
7.725097652856924105e+04
7.724493057754504844e+04
7.724772101647929230e+04
7.723795448020946060e+04
7.724493057754504844e+04
7.724493057754504844e+04
7.724679087016788253e+04
7.724074491914370446e+04
7.725190667488065083e+04
7.725376696750347037e+04
7.725376696750347037e+04
7.726771916217466060e+04
7.724772101647929230e+04
7.725888277221623866e+04
7.725562726012628991e+04
7.725562726012628991e+04
7.725190667488065083e+04
7.725469711381488014e+04
7.725795262590482889e+04
7.724679087016788253e+04
7.724679087016788253e+04
7.726167321115048253e+04
7.725888277221623866e+04
7.726957945479748014e+04
7.725655740643771423e+04
7.725655740643771423e+04
7.727097467426459480e+04
7.726167321115048253e+04
7.726260335746189230e+04
7.725981291852764843e+04
7.725981291852764843e+04
7.725795262590482889e+04
7.726074306483905821e+04
7.727795077160019719e+04
7.726167321115048253e+04
7.726167321115048253e+04
7.724772101647929230e+04
7.727655555213306798e+04
7.729190296627137286e+04
7.727097467426459480e+04
7.727097467426459480e+04
7.727469525951024843e+04
7.728399672262437525e+04
7.728585701524719479e+04
7.727655555213306798e+04
7.727655555213306798e+04
7.728399672262437525e+04
7.728678716155860457e+04
7.728260150315724604e+04
7.728260150315724604e+04
7.729794891729555093e+04
7.728399672262437525e+04
7.728678716155860457e+04
7.729283311258278263e+04
7.729283311258278263e+04
7.729283311258278263e+04
7.728074121053442650e+04
7.728585701524719479e+04
7.729283311258278263e+04
7.729283311258278263e+04
7.728492686893578502e+04
7.728864745418143866e+04
7.727795077160019719e+04
7.728074121053442650e+04
7.728074121053442650e+04
7.729097281995996309e+04
7.728864745418143866e+04
7.728260150315724604e+04
7.727981106422301673e+04
7.727981106422301673e+04
7.729469340520561673e+04
7.728167135684583627e+04
7.728678716155860457e+04
7.727190482057600457e+04
7.727190482057600457e+04
7.728678716155860457e+04
7.728167135684583627e+04
7.727190482057600457e+04
7.727097467426459480e+04
7.727097467426459480e+04
7.727097467426459480e+04
7.728585701524719479e+04
7.728167135684583627e+04
7.728864745418143866e+04
7.728864745418143866e+04
7.728957760049284843e+04
7.728492686893578502e+04
7.728260150315724604e+04
7.729376325889419240e+04
7.729376325889419240e+04
7.727981106422301673e+04
7.729190296627137286e+04
7.729097281995996309e+04
7.730259964885261434e+04
7.730259964885261434e+04
7.729190296627137286e+04
7.730259964885261434e+04
7.729097281995996309e+04
7.729097281995996309e+04
7.730492501463115332e+04
7.728957760049284843e+04
7.729190296627137286e+04
7.731097096565533138e+04
7.731097096565533138e+04
7.730585516094256309e+04
7.728585701524719479e+04
7.729190296627137286e+04
7.728957760049284843e+04
7.728957760049284843e+04
7.730259964885261434e+04
7.728864745418143866e+04
7.730166950254120457e+04
7.729190296627137286e+04
7.729190296627137286e+04
7.729887906360696070e+04
7.729655369782843627e+04
7.730585516094256309e+04
7.730771545356538263e+04
7.730771545356538263e+04
7.730678530725397286e+04
7.730771545356538263e+04
7.730166950254120457e+04
7.728771730787001434e+04
7.728771730787001434e+04
7.730492501463115332e+04
7.729980920991838502e+04
7.730073935622979479e+04
7.730073935622979479e+04
7.730073935622979479e+04
7.730585516094256309e+04
7.731190111196674115e+04
7.731190111196674115e+04
7.731097096565533138e+04
7.731097096565533138e+04
7.731562169721239479e+04
7.731097096565533138e+04
7.731469155090097047e+04
7.731376140458956070e+04
7.731376140458956070e+04
7.731655184352380456e+04
7.732166764823657286e+04
7.731887720930232899e+04
7.731887720930232899e+04
7.732399301401509729e+04
7.733096911135068513e+04
7.732678345294934115e+04
7.731283125827815093e+04
7.731283125827815093e+04
7.732771359926075093e+04
7.731469155090097047e+04
7.732073750192516309e+04
7.732259779454798263e+04
7.732259779454798263e+04
7.732957389188357047e+04
7.732492316032650706e+04
7.732678345294934115e+04
7.732492316032650706e+04
7.732492316032650706e+04
7.733096911135068513e+04
7.732166764823657286e+04
7.732771359926075093e+04
7.732585330663791683e+04
7.732585330663791683e+04
7.733096911135068513e+04
7.732771359926075093e+04
7.733096911135068513e+04
7.732073750192516309e+04
7.732073750192516309e+04
7.734259594024335092e+04
7.734492130602187535e+04
7.735096725704605342e+04
7.733375955028492899e+04
7.733375955028492899e+04
7.733794520868628751e+04
7.734166579393192660e+04
7.733980550130910706e+04
7.734864189126752899e+04
7.734864189126752899e+04
7.734492130602187535e+04
7.734166579393192660e+04
7.733887535499769729e+04
7.734678159864469490e+04
7.734678159864469490e+04
7.733375955028492899e+04
7.733980550130910706e+04
7.733887535499769729e+04
7.734957203757893876e+04
7.734957203757893876e+04
7.734678159864469490e+04
7.734259594024335092e+04
7.734678159864469490e+04
7.734678159864469490e+04
7.735189740335746319e+04
7.734771174495611922e+04
7.733468969659633876e+04
7.734585145233328512e+04
7.734585145233328512e+04
7.735654813491452660e+04
7.734492130602187535e+04
7.734957203757893876e+04
7.734864189126752899e+04
7.734864189126752899e+04
7.736259408593870467e+04
7.735468784229170706e+04
7.735096725704605342e+04
7.735096725704605342e+04
7.735096725704605342e+04
7.735096725704605342e+04
7.735980364700447535e+04
7.736398930540583387e+04
7.735654813491452660e+04
7.735654813491452660e+04
7.735375769598029729e+04
7.736491945171724365e+04
7.735887350069306558e+04
7.735561798860311683e+04
7.735561798860311683e+04
7.735887350069306558e+04
7.736491945171724365e+04
7.736864003696288273e+04
7.735980364700447535e+04
7.735980364700447535e+04
7.737189554905283148e+04
7.736073379331588512e+04
7.736491945171724365e+04
7.735794335438164126e+04
7.735794335438164126e+04
7.736864003696288273e+04
7.735794335438164126e+04
7.736957018327430706e+04
7.736491945171724365e+04
7.736491945171724365e+04
7.736677974434006319e+04
7.736073379331588512e+04
7.736491945171724365e+04
7.738259223163407296e+04
7.738259223163407296e+04
7.736259408593870467e+04
7.737980179269984365e+04
7.736398930540583387e+04
7.736398930540583387e+04
7.737282569536424126e+04
7.736491945171724365e+04
7.736677974434006319e+04
7.736677974434006319e+04
7.736677974434006319e+04
7.737096540274142171e+04
7.736770989065147296e+04
7.737096540274142171e+04
7.736491945171724365e+04
7.736491945171724365e+04
7.735189740335746319e+04
7.736398930540583387e+04
7.736491945171724365e+04
7.735794335438164126e+04
7.735794335438164126e+04
7.735794335438164126e+04
7.734073564762051683e+04
7.735794335438164126e+04
7.734492130602187535e+04
7.734492130602187535e+04
7.735887350069306558e+04
7.734864189126752899e+04
7.733887535499769729e+04
7.733654998921915831e+04
7.733654998921915831e+04
7.733096911135068513e+04
7.733375955028492899e+04
7.732585330663791683e+04
7.732166764823657286e+04
7.732166764823657286e+04
7.732957389188357047e+04
7.732678345294934115e+04
7.731980735561373876e+04
7.732864374557216070e+04
7.732864374557216070e+04
7.732073750192516309e+04
7.731980735561373876e+04
7.732073750192516309e+04
7.731887720930232899e+04
7.731887720930232899e+04
7.731655184352380456e+04
7.731469155090097047e+04
7.732492316032650706e+04
7.731980735561373876e+04
7.731980735561373876e+04
7.729980920991838502e+04
7.730399486831972899e+04
7.731469155090097047e+04
7.731469155090097047e+04
7.731562169721239479e+04
7.730585516094256309e+04
7.730585516094256309e+04
7.730492501463115332e+04
7.730492501463115332e+04
7.731376140458956070e+04
7.729655369782843627e+04
7.730864559987679240e+04
7.729980920991838502e+04
7.729980920991838502e+04
7.730771545356538263e+04
7.731283125827815093e+04
7.730585516094256309e+04
7.729887906360696070e+04
7.729887906360696070e+04
7.730399486831972899e+04
7.731562169721239479e+04
7.730585516094256309e+04
7.730771545356538263e+04
7.730771545356538263e+04
7.730399486831972899e+04
7.730957574618820217e+04
7.730678530725397286e+04
7.731562169721239479e+04
7.731562169721239479e+04
7.731469155090097047e+04
7.730957574618820217e+04
7.731980735561373876e+04
7.731190111196674115e+04
7.731190111196674115e+04
7.730073935622979479e+04
7.731794706299091922e+04
7.732492316032650706e+04
7.731562169721239479e+04
7.731562169721239479e+04
7.733096911135068513e+04
7.732259779454798263e+04
7.732957389188357047e+04
7.732771359926075093e+04
7.732771359926075093e+04
7.733189925766210945e+04
7.733096911135068513e+04
7.732166764823657286e+04
7.732678345294934115e+04
7.732678345294934115e+04
7.733096911135068513e+04
7.732259779454798263e+04
7.732864374557216070e+04
7.732864374557216070e+04
7.734166579393192660e+04
7.735096725704605342e+04
7.732399301401509729e+04
7.733375955028492899e+04
7.733375955028492899e+04
7.732166764823657286e+04
7.733375955028492899e+04
7.734678159864469490e+04
7.732259779454798263e+04
7.732259779454798263e+04
7.732678345294934115e+04
7.732585330663791683e+04
7.732678345294934115e+04
7.731562169721239479e+04
7.731562169721239479e+04
7.732864374557216070e+04
7.732957389188357047e+04
7.732399301401509729e+04
7.733189925766210945e+04
7.733189925766210945e+04
7.732678345294934115e+04
7.731469155090097047e+04
7.732957389188357047e+04
7.733468969659633876e+04
7.733468969659633876e+04
7.733468969659633876e+04
7.732073750192516309e+04
7.731980735561373876e+04
7.732259779454798263e+04
7.732259779454798263e+04
7.733887535499769729e+04
7.733561984290774853e+04
7.734492130602187535e+04
7.732771359926075093e+04
7.732771359926075093e+04
7.733654998921915831e+04
7.733561984290774853e+04
7.734585145233328512e+04
7.735887350069306558e+04
7.735887350069306558e+04
7.734259594024335092e+04
7.733468969659633876e+04
7.734678159864469490e+04
7.734585145233328512e+04
7.734585145233328512e+04
7.734957203757893876e+04
7.734957203757893876e+04
7.733980550130910706e+04
7.733980550130910706e+04
7.734957203757893876e+04
7.734492130602187535e+04
7.733980550130910706e+04
7.733980550130910706e+04
7.733980550130910706e+04
7.734585145233328512e+04
7.734678159864469490e+04
7.734073564762051683e+04
7.733980550130910706e+04
7.733980550130910706e+04
7.734166579393192660e+04
7.734585145233328512e+04
7.734492130602187535e+04
7.734492130602187535e+04
7.734492130602187535e+04
7.733096911135068513e+04
7.733980550130910706e+04
7.733654998921915831e+04
7.734166579393192660e+04
7.734166579393192660e+04
7.734492130602187535e+04
7.734957203757893876e+04
7.734864189126752899e+04
7.733980550130910706e+04
7.733980550130910706e+04
7.734771174495611922e+04
7.733794520868628751e+04
7.734399115971046558e+04
7.733282940397351922e+04
7.733282940397351922e+04
7.734678159864469490e+04
7.735561798860311683e+04
7.733189925766210945e+04
7.734771174495611922e+04
7.734771174495611922e+04
7.734864189126752899e+04
7.735282754966887296e+04
7.735375769598029729e+04
7.735375769598029729e+04
7.735375769598029729e+04
7.734259594024335092e+04
7.733561984290774853e+04
7.733282940397351922e+04
7.735375769598029729e+04
7.735375769598029729e+04
7.735282754966887296e+04
7.734399115971046558e+04
7.734957203757893876e+04
7.734957203757893876e+04
7.736259408593870467e+04
7.735096725704605342e+04
7.735189740335746319e+04
7.733887535499769729e+04
7.733887535499769729e+04
7.734399115971046558e+04
7.734492130602187535e+04
7.733794520868628751e+04
7.735282754966887296e+04
7.735282754966887296e+04
7.735561798860311683e+04
7.734771174495611922e+04
7.735980364700447535e+04
7.732864374557216070e+04
7.732864374557216070e+04
7.734864189126752899e+04
7.735096725704605342e+04
7.733282940397351922e+04
7.733887535499769729e+04
7.733887535499769729e+04
7.734771174495611922e+04
7.735096725704605342e+04
7.734678159864469490e+04
7.733980550130910706e+04
7.733980550130910706e+04
7.735654813491452660e+04
7.735794335438164126e+04
7.735794335438164126e+04
7.734492130602187535e+04
7.734492130602187535e+04
7.734678159864469490e+04
7.734957203757893876e+04
7.734585145233328512e+04
7.735468784229170706e+04
7.735468784229170706e+04
7.735654813491452660e+04
7.735282754966887296e+04
7.735654813491452660e+04
7.735980364700447535e+04
7.735980364700447535e+04
7.735189740335746319e+04
7.735887350069306558e+04
7.734864189126752899e+04
7.735189740335746319e+04
7.735189740335746319e+04
7.734957203757893876e+04
7.735468784229170706e+04
7.735189740335746319e+04
7.735189740335746319e+04
7.735654813491452660e+04
7.735794335438164126e+04
7.736677974434006319e+04
7.735887350069306558e+04
7.735887350069306558e+04
7.736677974434006319e+04
7.736259408593870467e+04
7.735980364700447535e+04
7.735561798860311683e+04
7.735561798860311683e+04
7.736166393962729489e+04
7.736398930540583387e+04
7.738259223163407296e+04
7.735654813491452660e+04
7.735654813491452660e+04
7.737468598798707535e+04
7.736398930540583387e+04
7.735887350069306558e+04
7.736166393962729489e+04
7.736166393962729489e+04
7.736166393962729489e+04
7.737282569536424126e+04
7.736957018327430706e+04
7.735794335438164126e+04
7.735794335438164126e+04
7.736770989065147296e+04
7.736770989065147296e+04
7.737189554905283148e+04
7.735887350069306558e+04
7.735887350069306558e+04
7.737189554905283148e+04
7.736166393962729489e+04
7.737794150007700955e+04
7.736259408593870467e+04
7.736259408593870467e+04
7.737654628060989489e+04
7.735980364700447535e+04
7.735887350069306558e+04
7.737189554905283148e+04
7.737189554905283148e+04
7.737887164638841932e+04
7.737189554905283148e+04
7.736770989065147296e+04
7.736770989065147296e+04
7.737980179269984365e+04
7.737096540274142171e+04
7.737654628060989489e+04
7.737794150007700955e+04
7.737794150007700955e+04
7.737561613429848512e+04
7.737096540274142171e+04
7.736957018327430706e+04
7.738398745110118762e+04
7.738398745110118762e+04
7.738863818265825103e+04
7.737654628060989489e+04
7.737980179269984365e+04
7.737654628060989489e+04
7.737654628060989489e+04
7.737282569536424126e+04
7.737980179269984365e+04
7.737980179269984365e+04
7.737096540274142171e+04
7.737096540274142171e+04
7.736491945171724365e+04
7.737980179269984365e+04
7.738166208532266319e+04
7.737375584167565103e+04
7.737375584167565103e+04
7.738073193901125342e+04
7.738073193901125342e+04
7.737794150007700955e+04
7.738398745110118762e+04
7.738398745110118762e+04
7.738584774372402171e+04
7.736864003696288273e+04
7.737654628060989489e+04
7.738491759741259739e+04
7.738491759741259739e+04
7.738398745110118762e+04
7.737468598798707535e+04
7.739468413368242909e+04
7.738956832896966080e+04
7.738956832896966080e+04
7.737654628060989489e+04
7.739189369474819978e+04
7.738863818265825103e+04
7.739096354843679001e+04
7.739096354843679001e+04
7.738491759741259739e+04
7.737887164638841932e+04
7.739654442630526319e+04
7.739654442630526319e+04
7.737561613429848512e+04
7.736259408593870467e+04
7.736957018327430706e+04
7.736864003696288273e+04
7.736864003696288273e+04
7.738259223163407296e+04
7.737096540274142171e+04
7.735561798860311683e+04
7.734864189126752899e+04
7.734864189126752899e+04
7.735375769598029729e+04
7.735282754966887296e+04
7.734166579393192660e+04
7.734166579393192660e+04
7.734166579393192660e+04
7.734166579393192660e+04
7.731980735561373876e+04
7.733282940397351922e+04
7.731376140458956070e+04
7.731376140458956070e+04
7.732771359926075093e+04
7.731980735561373876e+04
7.732771359926075093e+04
7.730073935622979479e+04
7.730073935622979479e+04
7.732399301401509729e+04
7.732678345294934115e+04
7.731980735561373876e+04
7.730771545356538263e+04
7.730771545356538263e+04
7.730678530725397286e+04
7.731794706299091922e+04
7.731097096565533138e+04
7.730585516094256309e+04
7.730585516094256309e+04
7.731097096565533138e+04
7.730678530725397286e+04
7.731562169721239479e+04
7.731097096565533138e+04
7.731097096565533138e+04
7.731655184352380456e+04
7.730957574618820217e+04
7.731655184352380456e+04
7.731980735561373876e+04
7.731980735561373876e+04
7.731283125827815093e+04
7.731469155090097047e+04
7.730864559987679240e+04
7.730864559987679240e+04
7.732771359926075093e+04
7.731794706299091922e+04
7.731562169721239479e+04
7.730864559987679240e+04
7.730864559987679240e+04
7.731980735561373876e+04
7.731887720930232899e+04
7.730259964885261434e+04
7.732399301401509729e+04
7.732399301401509729e+04
7.731469155090097047e+04
7.731794706299091922e+04
7.730957574618820217e+04
7.730073935622979479e+04
7.730073935622979479e+04
7.732166764823657286e+04
7.732771359926075093e+04
7.730957574618820217e+04
7.731562169721239479e+04
7.731562169721239479e+04
7.730771545356538263e+04
7.731794706299091922e+04
7.731376140458956070e+04
7.731097096565533138e+04
7.731097096565533138e+04
7.731980735561373876e+04
7.731562169721239479e+04
7.731562169721239479e+04
7.732073750192516309e+04
7.732073750192516309e+04
7.731562169721239479e+04
7.733189925766210945e+04
7.732259779454798263e+04
7.730492501463115332e+04
7.730492501463115332e+04
7.732073750192516309e+04
7.731655184352380456e+04
7.733375955028492899e+04
7.733096911135068513e+04
7.733096911135068513e+04
7.732771359926075093e+04
7.734492130602187535e+04
7.731980735561373876e+04
7.733189925766210945e+04
7.733189925766210945e+04
7.732492316032650706e+04
7.732399301401509729e+04
7.733096911135068513e+04
7.733096911135068513e+04
7.733096911135068513e+04
7.731887720930232899e+04
7.732771359926075093e+04
7.732166764823657286e+04
7.732166764823657286e+04
7.732585330663791683e+04
7.732166764823657286e+04
7.732864374557216070e+04
7.732166764823657286e+04
7.732166764823657286e+04
7.731794706299091922e+04
7.733189925766210945e+04
7.732771359926075093e+04
7.732957389188357047e+04
7.732957389188357047e+04
7.733468969659633876e+04
7.733375955028492899e+04
7.733654998921915831e+04
7.732399301401509729e+04
7.732399301401509729e+04
7.732585330663791683e+04
7.732957389188357047e+04
7.733189925766210945e+04
7.732957389188357047e+04
7.732957389188357047e+04
7.732073750192516309e+04
7.732399301401509729e+04
7.732399301401509729e+04
7.732259779454798263e+04
7.732259779454798263e+04
7.732492316032650706e+04
7.733189925766210945e+04
7.733189925766210945e+04
7.732259779454798263e+04
7.732259779454798263e+04
7.732259779454798263e+04
7.732259779454798263e+04
7.733282940397351922e+04
7.731980735561373876e+04
7.731980735561373876e+04
7.732399301401509729e+04
7.731190111196674115e+04
7.731376140458956070e+04
7.732678345294934115e+04
7.732678345294934115e+04
7.733189925766210945e+04
7.731980735561373876e+04
7.732678345294934115e+04
7.732678345294934115e+04
7.732957389188357047e+04
7.731562169721239479e+04
7.732166764823657286e+04
7.730864559987679240e+04
7.730864559987679240e+04
7.732771359926075093e+04
7.732678345294934115e+04
7.731887720930232899e+04
7.731376140458956070e+04
7.731376140458956070e+04
7.732259779454798263e+04
7.731887720930232899e+04
7.731283125827815093e+04
7.731562169721239479e+04
7.731562169721239479e+04
7.731469155090097047e+04
7.731283125827815093e+04
7.730492501463115332e+04
7.729980920991838502e+04
7.729980920991838502e+04
7.731562169721239479e+04
7.731283125827815093e+04
7.733887535499769729e+04
7.731376140458956070e+04
7.731376140458956070e+04
7.731980735561373876e+04
7.731469155090097047e+04
7.730864559987679240e+04
7.730166950254120457e+04
7.730166950254120457e+04
7.730957574618820217e+04
7.731469155090097047e+04
7.730073935622979479e+04
7.730166950254120457e+04
7.730166950254120457e+04
7.729655369782843627e+04
7.730259964885261434e+04
7.731283125827815093e+04
7.730585516094256309e+04
7.730585516094256309e+04
7.731562169721239479e+04
7.730864559987679240e+04
7.731655184352380456e+04
7.731190111196674115e+04
7.731190111196674115e+04
7.731376140458956070e+04
7.731980735561373876e+04
7.733468969659633876e+04
7.733468969659633876e+04
7.731887720930232899e+04
7.732585330663791683e+04
7.731887720930232899e+04
7.731562169721239479e+04
7.731562169721239479e+04
7.733468969659633876e+04
7.732771359926075093e+04
7.733189925766210945e+04
7.732492316032650706e+04
7.732492316032650706e+04
7.732771359926075093e+04
7.732259779454798263e+04
7.733282940397351922e+04
7.731097096565533138e+04
7.731097096565533138e+04
7.732492316032650706e+04
7.732771359926075093e+04
7.732771359926075093e+04
7.732957389188357047e+04
7.732957389188357047e+04
7.731562169721239479e+04
7.732864374557216070e+04
7.734399115971046558e+04
7.731794706299091922e+04
7.731794706299091922e+04
7.732259779454798263e+04
7.731562169721239479e+04
7.732073750192516309e+04
7.732259779454798263e+04
7.732259779454798263e+04
7.732399301401509729e+04
7.732585330663791683e+04
7.733096911135068513e+04
7.732492316032650706e+04
7.732492316032650706e+04
7.732771359926075093e+04
7.732585330663791683e+04
7.732678345294934115e+04
7.733980550130910706e+04
7.733980550130910706e+04
7.734166579393192660e+04
7.732864374557216070e+04
7.733375955028492899e+04
7.734678159864469490e+04
7.734678159864469490e+04
7.734492130602187535e+04
7.734166579393192660e+04
7.734399115971046558e+04
7.734399115971046558e+04
7.733282940397351922e+04
7.735282754966887296e+04
7.734399115971046558e+04
7.735980364700447535e+04
7.735980364700447535e+04
7.734492130602187535e+04
7.735096725704605342e+04
7.735282754966887296e+04
7.734166579393192660e+04
7.734166579393192660e+04
7.734957203757893876e+04
7.734678159864469490e+04
7.736166393962729489e+04
7.734492130602187535e+04
7.734492130602187535e+04
7.735096725704605342e+04
7.734957203757893876e+04
7.734957203757893876e+04
7.735282754966887296e+04
7.735282754966887296e+04
7.735561798860311683e+04
7.735096725704605342e+04
7.734073564762051683e+04
7.734678159864469490e+04
7.734678159864469490e+04
7.736259408593870467e+04
7.735096725704605342e+04
7.734864189126752899e+04
7.731980735561373876e+04
7.731980735561373876e+04
7.735096725704605342e+04
7.735375769598029729e+04
7.735096725704605342e+04
7.734399115971046558e+04
7.734399115971046558e+04
7.734492130602187535e+04
7.735468784229170706e+04
7.735096725704605342e+04
7.735096725704605342e+04
7.735096725704605342e+04
7.734073564762051683e+04
7.735375769598029729e+04
7.734585145233328512e+04
7.736166393962729489e+04
7.736166393962729489e+04
7.735189740335746319e+04
7.734678159864469490e+04
7.734771174495611922e+04
7.734771174495611922e+04
7.734259594024335092e+04
7.734399115971046558e+04
7.734259594024335092e+04
7.733654998921915831e+04
7.733654998921915831e+04
7.734399115971046558e+04
7.733561984290774853e+04
7.733654998921915831e+04
7.732771359926075093e+04
7.732771359926075093e+04
7.732957389188357047e+04
7.733375955028492899e+04
7.731469155090097047e+04
7.731469155090097047e+04
7.731469155090097047e+04
7.731887720930232899e+04
7.731887720930232899e+04
7.731655184352380456e+04
7.731097096565533138e+04
7.731097096565533138e+04
7.730864559987679240e+04
7.730864559987679240e+04
7.728678716155860457e+04
7.728492686893578502e+04
7.728492686893578502e+04
7.729283311258278263e+04
7.728864745418143866e+04
7.728399672262437525e+04
7.727283496688742889e+04
7.727283496688742889e+04
7.726864930848607037e+04
7.726678901586323627e+04
7.727562540582165821e+04
7.727376511319883866e+04
7.727376511319883866e+04
7.726678901586323627e+04
7.726492872324041673e+04
7.726678901586323627e+04
7.725469711381488014e+04
7.725469711381488014e+04
7.726771916217466060e+04
7.725888277221623866e+04
7.726260335746189230e+04
7.727097467426459480e+04
7.727097467426459480e+04
7.726074306483905821e+04
7.725888277221623866e+04
7.726585886955182650e+04
7.726585886955182650e+04
7.725283682119206060e+04
7.726492872324041673e+04
7.725888277221623866e+04
7.726074306483905821e+04
7.726074306483905821e+04
7.726260335746189230e+04
7.725888277221623866e+04
7.726074306483905821e+04
7.725469711381488014e+04
7.725469711381488014e+04
7.723190852918528253e+04
7.724167506545511424e+04
7.723981477283228014e+04
7.724586072385647276e+04
7.724586072385647276e+04
7.724260521176652401e+04
7.725190667488065083e+04
7.724167506545511424e+04
7.724679087016788253e+04
7.724679087016788253e+04
7.724586072385647276e+04
7.724679087016788253e+04
7.724167506545511424e+04
7.723469896811951185e+04
7.723469896811951185e+04
7.725376696750347037e+04
7.724958130910211185e+04
7.724493057754504844e+04
7.724493057754504844e+04
7.724493057754504844e+04
7.723981477283228014e+04
7.724679087016788253e+04
7.723888462652087037e+04
7.723795448020946060e+04
7.723795448020946060e+04
7.724772101647929230e+04
7.724167506545511424e+04
7.724260521176652401e+04
7.723283867549669230e+04
7.723283867549669230e+04
7.723981477283228014e+04
7.724772101647929230e+04
7.725283682119206060e+04
7.726260335746189230e+04
7.726260335746189230e+04
7.724865116279070207e+04
7.724586072385647276e+04
7.725283682119206060e+04
7.725283682119206060e+04
7.725283682119206060e+04
7.723097838287387276e+04
7.724353535807793378e+04
7.724074491914370446e+04
7.724074491914370446e+04
7.723981477283228014e+04
7.724679087016788253e+04
7.722958316340675810e+04
7.723097838287387276e+04
7.723097838287387276e+04
7.724586072385647276e+04
7.723795448020946060e+04
7.724074491914370446e+04
7.723283867549669230e+04
7.723283867549669230e+04
7.725888277221623866e+04
7.723097838287387276e+04
7.724772101647929230e+04
7.724772101647929230e+04
7.724772101647929230e+04
7.724772101647929230e+04
7.725376696750347037e+04
7.724679087016788253e+04
7.724865116279070207e+04
7.724865116279070207e+04
7.725097652856924105e+04
7.724586072385647276e+04
7.724074491914370446e+04
7.725283682119206060e+04
7.725283682119206060e+04
7.724586072385647276e+04
7.724493057754504844e+04
7.724353535807793378e+04
7.724586072385647276e+04
7.724586072385647276e+04
7.724353535807793378e+04
7.723981477283228014e+04
7.724772101647929230e+04
7.724586072385647276e+04
7.724586072385647276e+04
7.723097838287387276e+04
7.724353535807793378e+04
7.724353535807793378e+04
7.724493057754504844e+04
7.724493057754504844e+04
7.725562726012628991e+04
7.724493057754504844e+04
7.723655926074234594e+04
7.723655926074234594e+04
7.724865116279070207e+04
7.723795448020946060e+04
7.723795448020946060e+04
7.723562911443093617e+04
7.723562911443093617e+04
7.723888462652087037e+04
7.723097838287387276e+04
7.722958316340675810e+04
7.722353721238256549e+04
7.722353721238256549e+04
7.722679272447251424e+04
7.722958316340675810e+04
7.722679272447251424e+04
7.722586257816110447e+04
7.722586257816110447e+04
7.723655926074234594e+04
7.723562911443093617e+04
7.722865301709533378e+04
7.721656111504697765e+04
7.721656111504697765e+04
7.723097838287387276e+04
7.723562911443093617e+04
7.722167691975974594e+04
7.720958501771138981e+04
7.720958501771138981e+04
7.721888648082551663e+04
7.722260706607115571e+04
7.721981662713692640e+04
7.721470082242415810e+04
7.721470082242415810e+04
7.723097838287387276e+04
7.721888648082551663e+04
7.722260706607115571e+04
7.720493428615432640e+04
7.720493428615432640e+04
7.721563096873556788e+04
7.721795633451409230e+04
7.721470082242415810e+04
7.722074677344833617e+04
7.722074677344833617e+04
7.721656111504697765e+04
7.721795633451409230e+04
7.722260706607115571e+04
7.722679272447251424e+04
7.722679272447251424e+04
7.723795448020946060e+04
7.722074677344833617e+04
7.719470267672878981e+04
7.719470267672878981e+04
7.722865301709533378e+04
7.721981662713692640e+04
7.721470082242415810e+04
7.722493243184969469e+04
7.722493243184969469e+04
7.722167691975974594e+04
7.722353721238256549e+04
7.721795633451409230e+04
7.721377067611274833e+04
7.721377067611274833e+04
7.722679272447251424e+04
7.721656111504697765e+04
7.721795633451409230e+04
7.721191038348991424e+04
7.721191038348991424e+04
7.722260706607115571e+04
7.721981662713692640e+04
7.721795633451409230e+04
7.721284052980132401e+04
7.721284052980132401e+04
7.722074677344833617e+04
7.719981848144155811e+04
7.722074677344833617e+04
7.721191038348991424e+04
7.721191038348991424e+04
7.722679272447251424e+04
7.722493243184969469e+04
7.722074677344833617e+04
7.721284052980132401e+04
7.721284052980132401e+04
7.723469896811951185e+04
7.722679272447251424e+04
7.723190852918528253e+04
7.722353721238256549e+04
7.722353721238256549e+04
7.722167691975974594e+04
7.722074677344833617e+04
7.721191038348991424e+04
7.721098023717850447e+04
7.721098023717850447e+04
7.722167691975974594e+04
7.720865487139998004e+04
7.721981662713692640e+04
7.722260706607115571e+04
7.722260706607115571e+04
7.721656111504697765e+04
7.721888648082551663e+04
7.721098023717850447e+04
7.721098023717850447e+04
7.722679272447251424e+04
7.721795633451409230e+04
7.721981662713692640e+04
7.720772472508855572e+04
7.720772472508855572e+04
7.721981662713692640e+04
7.719981848144155811e+04
7.721888648082551663e+04
7.722167691975974594e+04
7.722167691975974594e+04
7.720865487139998004e+04
7.721656111504697765e+04
7.721377067611274833e+04
7.722353721238256549e+04
7.722353721238256549e+04
7.721795633451409230e+04
7.721888648082551663e+04
7.720958501771138981e+04
7.720260892037580197e+04
7.720260892037580197e+04
7.721563096873556788e+04
7.721888648082551663e+04
7.721888648082551663e+04
7.720353906668721174e+04
7.720353906668721174e+04
7.721191038348991424e+04
7.723283867549669230e+04
7.722493243184969469e+04
7.720353906668721174e+04
7.720353906668721174e+04
7.721656111504697765e+04
7.721888648082551663e+04
7.722865301709533378e+04
7.721656111504697765e+04
7.721656111504697765e+04
7.721981662713692640e+04
7.721981662713692640e+04
7.721795633451409230e+04
7.723469896811951185e+04
7.723469896811951185e+04
7.722074677344833617e+04
7.721284052980132401e+04
7.722260706607115571e+04
7.722260706607115571e+04
7.721981662713692640e+04
7.721191038348991424e+04
7.722074677344833617e+04
7.721191038348991424e+04
7.721191038348991424e+04
7.722167691975974594e+04
7.721377067611274833e+04
7.719284238410597027e+04
7.720167877406437765e+04
7.720167877406437765e+04
7.720865487139998004e+04
7.721470082242415810e+04
7.720260892037580197e+04
7.718958687201602152e+04
7.718958687201602152e+04
7.719795818881873856e+04
7.718679643308179220e+04
7.719191223779456050e+04
7.718493614045895811e+04
7.718493614045895811e+04
7.717656482365625561e+04
7.717889018943478004e+04
7.717470453103342152e+04
7.716168248267365561e+04
7.716168248267365561e+04
7.717563467734484584e+04
7.716075233636224584e+04
7.715889204373941175e+04
7.714261448328969709e+04
7.714261448328969709e+04
7.715098580009241414e+04
7.714680014169105561e+04
7.715377623902664345e+04
7.713889389804405801e+04
7.713889389804405801e+04
7.714168433697828732e+04
7.713470823964269948e+04
7.712587184968427755e+04
7.710773399661174335e+04
7.710773399661174335e+04
7.712261633759434335e+04
7.712168619128291903e+04
7.711377994763592142e+04
7.712866228861852142e+04
7.712866228861852142e+04
7.711889575234868971e+04
7.709889760665332142e+04
7.709889760665332142e+04
7.709889760665332142e+04
7.711098950870167755e+04
7.709889760665332142e+04
7.709564209456338722e+04
7.710494355767749948e+04
7.710494355767749948e+04
7.711889575234868971e+04
7.709471194825196289e+04
7.710494355767749948e+04
7.709982775296473119e+04
7.709982775296473119e+04
7.710261819189897506e+04
7.708959614353919460e+04
7.710354833821038483e+04
7.708355019251501653e+04
7.708355019251501653e+04
7.708355019251501653e+04
7.708866599722778483e+04
7.708773585091637506e+04
7.708262004620360676e+04
7.708262004620360676e+04
7.707285350993377506e+04
7.708773585091637506e+04
7.709471194825196289e+04
7.708168989989219699e+04
7.708168989989219699e+04
7.710494355767749948e+04
7.706959799784384086e+04
7.708494541198214574e+04
7.706680755890959699e+04
7.706680755890959699e+04
7.707099321731095552e+04
7.707564394886801892e+04
7.707796931464654335e+04
7.706680755890959699e+04
7.706680755890959699e+04
7.708075975358078722e+04
7.707378365624519938e+04
7.705192521792699699e+04
7.705797116895118961e+04
7.705797116895118961e+04
7.707192336362236529e+04
7.706773770522100676e+04
7.707378365624519938e+04
7.707285350993377506e+04
7.707285350993377506e+04
7.706866785153243109e+04
7.707192336362236529e+04
7.705564580317265063e+04
7.705564580317265063e+04
7.707564394886801892e+04
7.704680941321424325e+04
7.705890131526259938e+04
7.705983146157400915e+04
7.705983146157400915e+04
7.705890131526259938e+04
7.705378551054983109e+04
7.705285536423842132e+04
7.705797116895118961e+04
7.705797116895118961e+04
7.705890131526259938e+04
7.705983146157400915e+04
7.705378551054983109e+04
7.705564580317265063e+04
7.705564580317265063e+04
7.705378551054983109e+04
7.704959985214847256e+04
7.704773955952565302e+04
7.705471565686124086e+04
7.705471565686124086e+04
7.704959985214847256e+04
7.705285536423842132e+04
7.704587926690281893e+04
7.704866970583706279e+04
7.704866970583706279e+04
7.704866970583706279e+04
7.705099507161558722e+04
7.705099507161558722e+04
7.704587926690281893e+04
7.704587926690281893e+04
7.704076346219005063e+04
7.704355390112429450e+04
7.705890131526259938e+04
7.703890316956723109e+04
7.703890316956723109e+04
7.705099507161558722e+04
7.704494912059140916e+04
7.704959985214847256e+04
7.705890131526259938e+04
7.705890131526259938e+04
7.704076346219005063e+04
7.704076346219005063e+04
7.705378551054983109e+04
7.704959985214847256e+04
7.704959985214847256e+04
7.703657780378870666e+04
7.704587926690281893e+04
7.704076346219005063e+04
7.704076346219005063e+04
7.704773955952565302e+04
7.704076346219005063e+04
7.703564765747728234e+04
7.702169546280610666e+04
7.702169546280610666e+04
7.703099692592023348e+04
7.705099507161558722e+04
7.703983331587864086e+04
7.702588112120746518e+04
7.702588112120746518e+04
7.703564765747728234e+04
7.703192707223164325e+04
7.704355390112429450e+04
7.702169546280610666e+04
7.702169546280610666e+04
7.702960170645310427e+04
7.703471751116587257e+04
7.704169360850147496e+04
7.700588297551209689e+04
7.700588297551209689e+04
7.701657965809333837e+04
7.703378736485446279e+04
7.703378736485446279e+04
7.702262560911751643e+04
7.702262560911751643e+04
7.701657965809333837e+04
7.701099878022486519e+04
7.701564951178192860e+04
7.701378921915909450e+04
7.701378921915909450e+04
7.701983517018328712e+04
7.702262560911751643e+04
7.702262560911751643e+04
7.701983517018328712e+04
7.701983517018328712e+04
7.703099692592023348e+04
7.702588112120746518e+04
7.701890502387186280e+04
7.702681126751887496e+04
7.702681126751887496e+04
7.701890502387186280e+04
7.702681126751887496e+04
7.701657965809333837e+04
7.701657965809333837e+04
7.702262560911751643e+04
7.700681312182350666e+04
7.701285907284768473e+04
7.701192892653627496e+04
7.701192892653627496e+04
7.702588112120746518e+04
7.702076531649469689e+04
7.701890502387186280e+04
7.701657965809333837e+04
7.701657965809333837e+04
7.701890502387186280e+04
7.702681126751887496e+04
7.701657965809333837e+04
7.702076531649469689e+04
7.702076531649469689e+04
7.701471936547051882e+04
7.702495097489604086e+04
7.702588112120746518e+04
7.702495097489604086e+04
7.702495097489604086e+04
7.702262560911751643e+04
7.702681126751887496e+04
7.702169546280610666e+04
7.701890502387186280e+04
7.701890502387186280e+04
7.702867156014169450e+04
7.702960170645310427e+04
7.702262560911751643e+04
7.703657780378870666e+04
7.703657780378870666e+04
7.702681126751887496e+04
7.703564765747728234e+04
7.702495097489604086e+04
7.701564951178192860e+04
7.701564951178192860e+04
7.702867156014169450e+04
7.702960170645310427e+04
7.702867156014169450e+04
7.701797487756045302e+04
7.701797487756045302e+04
7.702867156014169450e+04
7.703890316956723109e+04
7.702960170645310427e+04
7.702495097489604086e+04
7.702495097489604086e+04
7.701471936547051882e+04
7.701890502387186280e+04
7.701797487756045302e+04
7.701797487756045302e+04
7.702960170645310427e+04
7.702262560911751643e+04
7.701983517018328712e+04
7.701192892653627496e+04
7.701192892653627496e+04
7.701564951178192860e+04
7.701285907284768473e+04
7.701378921915909450e+04
7.701983517018328712e+04
7.701983517018328712e+04
7.703099692592023348e+04
7.701983517018328712e+04
7.701657965809333837e+04
7.701983517018328712e+04
7.701983517018328712e+04
7.702355575542892620e+04
7.702355575542892620e+04
7.700588297551209689e+04
7.703285721854305302e+04
7.703285721854305302e+04
7.702355575542892620e+04
7.701378921915909450e+04
7.702262560911751643e+04
7.702169546280610666e+04
7.702169546280610666e+04
7.702588112120746518e+04
7.701890502387186280e+04
7.702681126751887496e+04
7.700588297551209689e+04
7.700588297551209689e+04
7.702960170645310427e+04
7.703099692592023348e+04
7.703285721854305302e+04
7.700867341444632621e+04
7.700867341444632621e+04
7.701983517018328712e+04
7.702495097489604086e+04
7.701285907284768473e+04
7.702262560911751643e+04
7.702262560911751643e+04
7.701099878022486519e+04
7.703285721854305302e+04
7.701983517018328712e+04
7.702588112120746518e+04
7.702588112120746518e+04
7.702588112120746518e+04
7.702076531649469689e+04
7.702774141383028473e+04
7.702774141383028473e+04
7.702495097489604086e+04
7.701471936547051882e+04
7.702169546280610666e+04
7.701564951178192860e+04
7.701564951178192860e+04
7.702495097489604086e+04
7.700960356075775053e+04
7.700588297551209689e+04
7.701285907284768473e+04
7.701285907284768473e+04
7.702262560911751643e+04
7.701797487756045302e+04
7.700960356075775053e+04
7.699797673186508473e+04
7.699797673186508473e+04
7.700262746342214814e+04
7.700262746342214814e+04
7.700076717079932860e+04
7.698867526875097246e+04
7.698867526875097246e+04
7.698960541506238224e+04
7.698262931772679440e+04
7.700681312182350666e+04
7.698355946403820417e+04
7.698355946403820417e+04
7.698355946403820417e+04
7.697379292776837246e+04
7.697983887879255053e+04
7.696681683043278463e+04
7.696681683043278463e+04
7.697286278145696269e+04
7.695798044047436269e+04
7.696077087940860656e+04
7.694960912367164565e+04
7.694960912367164565e+04
7.695891058678577247e+04
7.695891058678577247e+04
7.694867897736023588e+04
7.694263302633605781e+04
7.694263302633605781e+04
7.694495839211459679e+04
7.693379663637765043e+04
7.693798229477899440e+04
7.694077273371323827e+04
7.694077273371323827e+04
7.693984258740182850e+04
7.692961097797629191e+04
7.692682053904204804e+04
7.692682053904204804e+04
7.693054112428770168e+04
7.693472678268906020e+04
7.690682239334667975e+04
7.690589224703526997e+04
7.690589224703526997e+04
7.692356502695211384e+04
7.689287019867550407e+04
7.689473049129832361e+04
7.689473049129832361e+04
7.689473049129832361e+04
7.690356688125674555e+04
7.690077644232250168e+04
7.688263858924996748e+04
7.688775439396273578e+04
7.688775439396273578e+04
7.689473049129832361e+04
7.688496395502849191e+04
7.687891800400431384e+04
7.686961654089020158e+04
7.686961654089020158e+04
7.688263858924996748e+04
7.688170844293855771e+04
7.687054668720161135e+04
7.687473234560296987e+04
7.687473234560296987e+04
7.687194190666872601e+04
7.687984815031572361e+04
7.687566249191437964e+04
7.686589595564454794e+04
7.686589595564454794e+04
7.686775624826736748e+04
7.686775624826736748e+04
7.686961654089020158e+04
7.686961654089020158e+04
7.686961654089020158e+04
7.686868639457877725e+04
7.687659263822578941e+04
7.686868639457877725e+04
7.686961654089020158e+04
7.686961654089020158e+04
7.687054668720161135e+04
7.686264044355459919e+04
7.685473419990760158e+04
7.686264044355459919e+04
7.686264044355459919e+04
7.687054668720161135e+04
7.685054854150624305e+04
7.685659449253042112e+04
7.685659449253042112e+04
7.686682610195595771e+04
7.685194376097335771e+04
7.685380405359619181e+04
7.687798785769290407e+04
7.687798785769290407e+04
7.685891985830896010e+04
7.685194376097335771e+04
7.684961839519483328e+04
7.684357244417065522e+04
7.684357244417065522e+04
7.685473419990760158e+04
7.685380405359619181e+04
7.684496766363776987e+04
7.683985185892500158e+04
7.683985185892500158e+04
7.684589780994917965e+04
7.682357429847528692e+04
7.684868824888342351e+04
7.684264229785924545e+04
7.684264229785924545e+04
7.684868824888342351e+04
7.684775810257199919e+04
7.684357244417065522e+04
7.683985185892500158e+04
7.683985185892500158e+04
7.684496766363776987e+04
7.684589780994917965e+04
7.684775810257199919e+04
7.682869010318805522e+04
7.682869010318805522e+04
7.684357244417065522e+04
7.684961839519483328e+04
7.684682795626058942e+04
7.684078200523641135e+04
7.684078200523641135e+04
7.684496766363776987e+04
7.684264229785924545e+04
7.684868824888342351e+04
7.684171215154782112e+04
7.684171215154782112e+04
7.684496766363776987e+04
7.685194376097335771e+04
7.683566620052364306e+04
7.683566620052364306e+04
7.683473605421223328e+04
7.682078385954104306e+04
7.682589966425381135e+04
7.682962024949946499e+04
7.682962024949946499e+04
7.684264229785924545e+04
7.682357429847528692e+04
7.683055039581087476e+04
7.683659634683505283e+04
7.683659634683505283e+04
7.682869010318805522e+04
7.682962024949946499e+04
7.683055039581087476e+04
7.681659820113969909e+04
7.681659820113969909e+04
7.682357429847528692e+04
7.681566805482828931e+04
7.682589966425381135e+04
7.680590151855845761e+04
7.680590151855845761e+04
7.681380776220545522e+04
7.681473790851686499e+04
7.681985371322963329e+04
7.681659820113969909e+04
7.681659820113969909e+04
7.683799156630218204e+04
7.681473790851686499e+04
7.681566805482828931e+04
7.681055225011552102e+04
7.681055225011552102e+04
7.681055225011552102e+04
7.683055039581087476e+04
7.682264415216387715e+04
7.681473790851686499e+04
7.681473790851686499e+04
7.682264415216387715e+04
7.681473790851686499e+04
7.682682981056523568e+04
7.684682795626058942e+04
7.684682795626058942e+04
7.681194746958263568e+04
7.681659820113969909e+04
7.682264415216387715e+04
7.681799342060681374e+04
7.681799342060681374e+04
7.681380776220545522e+04
7.681055225011552102e+04
7.681380776220545522e+04
7.681380776220545522e+04
7.682264415216387715e+04
7.681055225011552102e+04
7.680497137224704784e+04
7.682264415216387715e+04
7.682264415216387715e+04
7.681287761589404545e+04
7.680497137224704784e+04
7.681473790851686499e+04
7.681055225011552102e+04
7.681055225011552102e+04
7.681799342060681374e+04
7.680590151855845761e+04
7.680497137224704784e+04
7.681287761589404545e+04
7.681287761589404545e+04
7.680171586015709909e+04
7.679799527491144545e+04
7.680869195749268692e+04
7.679799527491144545e+04
7.679799527491144545e+04
7.680962210380409670e+04
7.680869195749268692e+04
7.681566805482828931e+04
7.678590337286308932e+04
7.678590337286308932e+04
7.679473976282151125e+04
7.680683166486986738e+04
7.680683166486986738e+04
7.678869381179733318e+04
7.678869381179733318e+04
7.681194746958263568e+04
7.681566805482828931e+04
7.681194746958263568e+04
7.679892542122285522e+04
7.679892542122285522e+04
7.681055225011552102e+04
7.681194746958263568e+04
7.681380776220545522e+04
7.680171586015709909e+04
7.680171586015709909e+04
7.681566805482828931e+04
7.680590151855845761e+04
7.681659820113969909e+04
7.681892356691822351e+04
7.681892356691822351e+04
7.680590151855845761e+04
7.680962210380409670e+04
7.680776181118127715e+04
7.680776181118127715e+04
7.682775995687664545e+04
7.681194746958263568e+04
7.680962210380409670e+04
7.681287761589404545e+04
7.681287761589404545e+04
7.682496951794240158e+04
7.682171400585246738e+04
7.682357429847528692e+04
7.681566805482828931e+04
7.681566805482828931e+04
7.682589966425381135e+04
7.681659820113969909e+04
7.681194746958263568e+04
7.680869195749268692e+04
7.680869195749268692e+04
7.682589966425381135e+04
7.681799342060681374e+04
7.682171400585246738e+04
7.681380776220545522e+04
7.681380776220545522e+04
7.684078200523641135e+04
7.681985371322963329e+04
7.681473790851686499e+04
7.681055225011552102e+04
7.681055225011552102e+04
7.681799342060681374e+04
7.681194746958263568e+04
7.681055225011552102e+04
7.680357615277991863e+04
7.680357615277991863e+04
7.681659820113969909e+04
7.682775995687664545e+04
7.681892356691822351e+04
7.681799342060681374e+04
7.681799342060681374e+04
7.681566805482828931e+04
7.682496951794240158e+04
7.682357429847528692e+04
7.681799342060681374e+04
7.681799342060681374e+04
7.681799342060681374e+04
7.680683166486986738e+04
7.682078385954104306e+04
7.682682981056523568e+04
7.682682981056523568e+04
7.680078571384568932e+04
7.681194746958263568e+04
7.681566805482828931e+04
7.681566805482828931e+04
7.681194746958263568e+04
7.681473790851686499e+04
7.681892356691822351e+04
7.682869010318805522e+04
7.682869010318805522e+04
7.682357429847528692e+04
7.682171400585246738e+04
7.680590151855845761e+04
7.681380776220545522e+04
7.681380776220545522e+04
7.682496951794240158e+04
7.683287576158941374e+04
7.683194561527800397e+04
7.682496951794240158e+04
7.682496951794240158e+04
7.681287761589404545e+04
7.682589966425381135e+04
7.681473790851686499e+04
7.681473790851686499e+04
7.681473790851686499e+04
7.682078385954104306e+04
7.683473605421223328e+04
7.681985371322963329e+04
7.681985371322963329e+04
7.681985371322963329e+04
7.681659820113969909e+04
7.680869195749268692e+04
7.681799342060681374e+04
7.681055225011552102e+04
7.681055225011552102e+04
7.680171586015709909e+04
7.680357615277991863e+04
7.679287947019867715e+04
7.679194932388726738e+04
7.679194932388726738e+04
7.678776366548590886e+04
7.678869381179733318e+04
7.678357800708456489e+04
7.678264786077314056e+04
7.678264786077314056e+04
7.677195117819189909e+04
7.676683537347913079e+04
7.676683537347913079e+04
7.676683537347913079e+04
7.676962581241337466e+04
7.675892912983213319e+04
7.675474347143077466e+04
7.674869752040659660e+04
7.674869752040659660e+04
7.674497693516094296e+04
7.676078942245495273e+04
7.674265156938241853e+04
7.673567547204683069e+04
7.673567547204683069e+04
7.672962952102265263e+04
7.672962952102265263e+04
7.672265342368705024e+04
7.672172327737564046e+04
7.672172327737564046e+04
7.672172327737564046e+04
7.671288688741721853e+04
7.671567732635146240e+04
7.670870122901587456e+04
7.670870122901587456e+04
7.670870122901587456e+04
7.670777108270445024e+04
7.670498064377022092e+04
7.669660932696750388e+04
7.669660932696750388e+04
7.670079498536886240e+04
7.670079498536886240e+04
7.671195674110580876e+04
7.668777293700909649e+04
7.668777293700909649e+04
7.669567918065609410e+04
7.668265713229632820e+04
7.669753947327892820e+04
7.668684279069768672e+04
7.668684279069768672e+04
7.669288874172186479e+04
7.668963322963191604e+04
7.669288874172186479e+04
7.668172698598491843e+04
7.668172698598491843e+04
7.667893654705067456e+04
7.668498249807485263e+04
7.667893654705067456e+04
7.668870308332050627e+04
7.668870308332050627e+04
7.667893654705067456e+04
7.668265713229632820e+04
7.667754132758355991e+04
7.667754132758355991e+04
7.667754132758355991e+04
7.667661118127215013e+04
7.667475088864931604e+04
7.667382074233790627e+04
7.667382074233790627e+04
7.668870308332050627e+04
7.667056523024797207e+04
7.666358913291236968e+04
7.665986854766673059e+04
7.665986854766673059e+04
7.667382074233790627e+04
7.666079869397814036e+04
7.666591449869090866e+04
7.666591449869090866e+04
7.666591449869090866e+04
7.666172884028955013e+04
7.666591449869090866e+04
7.666777479131372820e+04
7.665661303557678184e+04
7.665661303557678184e+04
7.665893840135530627e+04
7.665986854766673059e+04
7.666265898660095991e+04
7.664359098721701594e+04
7.664359098721701594e+04
7.667196044971508672e+04
7.665382259664253797e+04
7.666172884028955013e+04
7.665056708455260377e+04
7.665056708455260377e+04
7.665382259664253797e+04
7.665196230401971843e+04
7.665661303557678184e+04
7.663568474357000377e+04
7.663568474357000377e+04
7.664963693824119400e+04
7.666777479131372820e+04
7.664963693824119400e+04
7.665475274295396230e+04
7.665475274295396230e+04
7.664963693824119400e+04
7.664870679192976968e+04
7.664777664561835991e+04
7.665661303557678184e+04
7.665661303557678184e+04
7.665196230401971843e+04
7.665289245033112820e+04
7.665382259664253797e+04
7.665382259664253797e+04
7.666172884028955013e+04
7.665893840135530627e+04
7.665754318188819161e+04
7.666079869397814036e+04
7.666079869397814036e+04
7.666079869397814036e+04
7.666172884028955013e+04
7.665754318188819161e+04
7.665754318188819161e+04
7.665754318188819161e+04
7.666591449869090866e+04
7.666265898660095991e+04
7.664870679192976968e+04
7.666079869397814036e+04
7.666079869397814036e+04
7.666963508393654774e+04
7.665568288926537207e+04
7.665568288926537207e+04
7.665568288926537207e+04
7.665568288926537207e+04
7.665661303557678184e+04
7.666079869397814036e+04
7.666358913291236968e+04
7.665475274295396230e+04
7.665475274295396230e+04
7.667056523024797207e+04
7.666172884028955013e+04
7.664359098721701594e+04
7.664266084090559161e+04
7.664266084090559161e+04
7.665382259664253797e+04
7.665289245033112820e+04
7.665056708455260377e+04
7.663661488988141355e+04
7.663661488988141355e+04
7.664777664561835991e+04
7.663987040197136230e+04
7.664173069459418184e+04
7.663894025565995253e+04
7.663894025565995253e+04
7.666358913291236968e+04
7.665056708455260377e+04
7.665196230401971843e+04
7.664963693824119400e+04
7.664963693824119400e+04
7.664963693824119400e+04
7.665196230401971843e+04
7.663056893885723548e+04
7.663056893885723548e+04
7.665893840135530627e+04
7.663754503619282332e+04
7.663196415832435014e+04
7.664266084090559161e+04
7.664266084090559161e+04
7.665196230401971843e+04
7.664266084090559161e+04
7.664870679192976968e+04
7.664173069459418184e+04
7.664173069459418184e+04
7.665382259664253797e+04
7.663382445094718423e+04
7.663987040197136230e+04
7.663289430463577446e+04
7.663289430463577446e+04
7.664266084090559161e+04
7.664266084090559161e+04
7.665754318188819161e+04
7.663987040197136230e+04
7.663987040197136230e+04
7.664684649930695014e+04
7.664080054828277207e+04
7.663987040197136230e+04
7.664173069459418184e+04
7.664173069459418184e+04
7.665196230401971843e+04
7.664963693824119400e+04
7.663661488988141355e+04
7.664870679192976968e+04
7.664870679192976968e+04
7.664591635299554036e+04
7.665196230401971843e+04
7.664498620668413059e+04
7.663568474357000377e+04
7.663568474357000377e+04
7.664266084090559161e+04
7.664963693824119400e+04
7.664777664561835991e+04
7.664359098721701594e+04
7.664359098721701594e+04
7.664498620668413059e+04
7.665568288926537207e+04
7.665289245033112820e+04
7.665893840135530627e+04
7.665893840135530627e+04
7.665382259664253797e+04
7.666172884028955013e+04
7.666172884028955013e+04
7.666172884028955013e+04
7.666498435237948433e+04
7.666870493762513797e+04
7.666358913291236968e+04
7.666265898660095991e+04
7.666265898660095991e+04
7.666079869397814036e+04
7.666079869397814036e+04
7.665986854766673059e+04
7.666358913291236968e+04
7.666358913291236968e+04
7.666358913291236968e+04
7.668358727860773797e+04
7.666777479131372820e+04
7.666777479131372820e+04
7.666777479131372820e+04
7.667382074233790627e+04
7.666358913291236968e+04
7.666684464500231843e+04
7.667754132758355991e+04
7.667754132758355991e+04
7.667475088864931604e+04
7.667893654705067456e+04
7.667986669336208433e+04
7.667289059602649650e+04
7.667289059602649650e+04
7.668358727860773797e+04
7.668358727860773797e+04
7.667986669336208433e+04
7.666265898660095991e+04
7.666265898660095991e+04
7.667475088864931604e+04
7.667661118127215013e+04
7.668172698598491843e+04
7.666358913291236968e+04
7.666358913291236968e+04
7.667475088864931604e+04
7.666498435237948433e+04
7.667661118127215013e+04
7.667289059602649650e+04
7.667289059602649650e+04
7.667986669336208433e+04
7.667986669336208433e+04
7.668684279069768672e+04
7.668265713229632820e+04
7.668265713229632820e+04
7.668870308332050627e+04
7.668358727860773797e+04
7.669567918065609410e+04
7.669567918065609410e+04
7.669660932696750388e+04
7.668358727860773797e+04
7.668684279069768672e+04
7.669056337594332581e+04
7.669056337594332581e+04
7.669893469274604286e+04
7.669381888803327456e+04
7.669660932696750388e+04
7.669660932696750388e+04
7.669660932696750388e+04
7.670591079008163069e+04
7.670591079008163069e+04
7.669660932696750388e+04
7.669195859541045502e+04
7.669195859541045502e+04
7.670684093639304047e+04
7.671660747266287217e+04
7.671567732635146240e+04
7.669660932696750388e+04
7.669660932696750388e+04
7.670684093639304047e+04
7.670358542430310627e+04
7.669986483905745263e+04
7.668777293700909649e+04
7.668777293700909649e+04
7.670963137532728433e+04
7.670079498536886240e+04
7.670870122901587456e+04
7.669056337594332581e+04
7.669056337594332581e+04
7.670684093639304047e+04
7.671381703372864285e+04
7.670777108270445024e+04
7.670498064377022092e+04
7.670498064377022092e+04
7.671753761897428194e+04
7.670265527799168194e+04
7.670358542430310627e+04
7.670591079008163069e+04
7.670591079008163069e+04
7.671567732635146240e+04
7.670777108270445024e+04
7.670591079008163069e+04
7.671986298475282092e+04
7.671986298475282092e+04
7.671660747266287217e+04
7.670591079008163069e+04
7.668684279069768672e+04
7.668684279069768672e+04
7.671381703372864285e+04
7.669986483905745263e+04
7.669474903434468433e+04
7.670172513168027217e+04
7.670172513168027217e+04
7.669474903434468433e+04
7.668079683967349411e+04
7.667754132758355991e+04
7.668358727860773797e+04
7.668358727860773797e+04
7.668591264438626240e+04
7.667754132758355991e+04
7.667056523024797207e+04
7.664963693824119400e+04
7.664963693824119400e+04
7.666870493762513797e+04
7.665986854766673059e+04
7.665893840135530627e+04
7.664359098721701594e+04
7.664359098721701594e+04
7.665196230401971843e+04
7.664684649930695014e+04
7.663754503619282332e+04
7.663475459725859400e+04
7.663475459725859400e+04
7.663196415832435014e+04
7.662870864623441594e+04
7.662684835361158184e+04
7.662266269521023787e+04
7.662266269521023787e+04
7.662963879254582571e+04
7.662173254889881355e+04
7.661661674418604525e+04
7.661196601262899640e+04
7.661196601262899640e+04
7.660592006160480378e+04
7.660080425689205003e+04
7.661057079316186719e+04
7.659987411058062571e+04
7.659987411058062571e+04
7.660592006160480378e+04
7.661196601262899640e+04
7.659057264746651344e+04
7.658964250115508912e+04
7.658964250115508912e+04
7.661057079316186719e+04
7.661196601262899640e+04
7.658685206222085981e+04
7.658685206222085981e+04
7.659754874480210128e+04
7.659894396426921594e+04
7.658964250115508912e+04
7.659382815955644764e+04
7.659382815955644764e+04
7.658499176959804026e+04
7.659057264746651344e+04
7.658778220853226958e+04
7.658778220853226958e+04
7.658778220853226958e+04
7.659987411058062571e+04
7.658964250115508912e+04
7.658592191590945004e+04
7.659289801324503787e+04
7.659289801324503787e+04
7.659382815955644764e+04
7.659382815955644764e+04
7.659196786693362810e+04
7.657987596488527197e+04
7.657987596488527197e+04
7.658499176959804026e+04
7.659057264746651344e+04
7.658871235484367935e+04
7.657755059910673299e+04
7.657755059910673299e+04
7.658499176959804026e+04
7.657755059910673299e+04
7.657894581857384765e+04
7.656964435545973538e+04
7.656964435545973538e+04
7.658499176959804026e+04
7.656871420914832561e+04
7.656871420914832561e+04
7.657196972123825981e+04
7.657196972123825981e+04
7.656173811181272322e+04
7.656871420914832561e+04
7.655569216078854515e+04
7.655987781918990368e+04
7.655987781918990368e+04
7.657057450177114515e+04
7.655894767287849390e+04
7.654685577083012322e+04
7.656266825812413299e+04
7.656266825812413299e+04
7.655755245341136470e+04
7.655057635607577686e+04
7.655987781918990368e+04
7.655987781918990368e+04
7.655476201447713538e+04
7.656592377021408174e+04
7.655894767287849390e+04
7.657057450177114515e+04
7.657057450177114515e+04
7.656871420914832561e+04
7.656964435545973538e+04
7.656266825812413299e+04
7.656685391652549151e+04
7.656685391652549151e+04
7.657569030648391345e+04
7.657383001386109390e+04
7.656685391652549151e+04
7.657289986754966958e+04
7.657289986754966958e+04
7.657755059910673299e+04
7.657662045279532322e+04
7.658266640381950128e+04
7.656778406283690128e+04
7.656778406283690128e+04
7.657987596488527197e+04
7.658964250115508912e+04
7.659661859849069151e+04
7.656499362390267197e+04
7.656499362390267197e+04
7.657569030648391345e+04
7.658173625750809151e+04
7.657289986754966958e+04
7.656778406283690128e+04
7.656778406283690128e+04
7.658499176959804026e+04
7.657755059910673299e+04
7.657569030648391345e+04
7.655569216078854515e+04
7.655569216078854515e+04
7.655569216078854515e+04
7.657196972123825981e+04
7.656685391652549151e+04
7.656778406283690128e+04
7.656778406283690128e+04
7.656592377021408174e+04
7.655987781918990368e+04
7.656173811181272322e+04
7.656964435545973538e+04
7.656964435545973538e+04
7.656964435545973538e+04
7.656499362390267197e+04
7.656080796550131345e+04
7.656080796550131345e+04
7.658080611119668174e+04
7.657476016017250367e+04
7.657057450177114515e+04
7.657057450177114515e+04
7.657057450177114515e+04
7.658266640381950128e+04
7.656266825812413299e+04
7.656080796550131345e+04
7.656266825812413299e+04
7.656266825812413299e+04
7.656080796550131345e+04
7.657383001386109390e+04
7.657755059910673299e+04
7.656778406283690128e+04
7.656778406283690128e+04
7.657569030648391345e+04
7.657196972123825981e+04
7.656871420914832561e+04
7.657289986754966958e+04
7.657289986754966958e+04
7.657289986754966958e+04
7.657196972123825981e+04
7.656964435545973538e+04
7.655569216078854515e+04
7.655569216078854515e+04
7.658266640381950128e+04
7.657289986754966958e+04
7.657569030648391345e+04
7.655383186816572561e+04
7.655383186816572561e+04
7.656871420914832561e+04
7.656778406283690128e+04
7.656592377021408174e+04
7.656778406283690128e+04
7.656778406283690128e+04
7.657662045279532322e+04
7.656266825812413299e+04
7.657987596488527197e+04
7.657289986754966958e+04
7.657289986754966958e+04
7.658499176959804026e+04
7.657755059910673299e+04
7.657755059910673299e+04
7.658173625750809151e+04
7.658173625750809151e+04
7.657662045279532322e+04
7.658359655013091106e+04
7.657569030648391345e+04
7.657569030648391345e+04
7.658499176959804026e+04
7.657289986754966958e+04
7.657755059910673299e+04
7.660498991529339401e+04
7.660498991529339401e+04
7.658080611119668174e+04
7.659568845217928174e+04
7.658964250115508912e+04
7.657476016017250367e+04
7.657476016017250367e+04
7.658080611119668174e+04
7.657894581857384765e+04
7.658173625750809151e+04
7.657569030648391345e+04
7.657569030648391345e+04
7.658359655013091106e+04
7.658685206222085981e+04
7.659289801324503787e+04
7.658871235484367935e+04
7.658871235484367935e+04
7.659057264746651344e+04
7.658871235484367935e+04
7.659568845217928174e+04
7.658871235484367935e+04
7.658871235484367935e+04
7.659196786693362810e+04
7.659894396426921594e+04
7.659057264746651344e+04
7.657196972123825981e+04
7.657196972123825981e+04
7.659661859849069151e+04
7.661057079316186719e+04
7.660964064685045741e+04
7.659289801324503787e+04
7.659289801324503787e+04
7.659894396426921594e+04
7.660871050053904764e+04
7.660359469582627935e+04
7.660080425689205003e+04
7.660080425689205003e+04
7.660592006160480378e+04
7.660592006160480378e+04
7.659894396426921594e+04
7.659894396426921594e+04
7.661568659787463548e+04
7.660592006160480378e+04
7.660498991529339401e+04
7.661894210996458423e+04
7.661894210996458423e+04
7.661475645156322571e+04
7.661568659787463548e+04
7.661057079316186719e+04
7.661475645156322571e+04
7.661475645156322571e+04
7.660964064685045741e+04
7.661987225627599400e+04
7.662173254889881355e+04
7.661289615894040617e+04
7.661289615894040617e+04
7.662963879254582571e+04
7.662498806098876230e+04
7.661661674418604525e+04
7.661754689049746958e+04
7.661754689049746958e+04
7.661754689049746958e+04
7.662080240258740378e+04
7.662870864623441594e+04
7.662359284152164764e+04
7.662359284152164764e+04
7.661987225627599400e+04
7.663056893885723548e+04
7.662684835361158184e+04
7.661754689049746958e+04
7.661754689049746958e+04
7.662684835361158184e+04
7.661661674418604525e+04
7.662591820730017207e+04
7.661987225627599400e+04
7.661987225627599400e+04
7.663894025565995253e+04
7.664359098721701594e+04
7.663196415832435014e+04
7.664777664561835991e+04
7.664777664561835991e+04
7.663475459725859400e+04
7.663382445094718423e+04
7.664080054828277207e+04
7.664498620668413059e+04
7.664498620668413059e+04
7.663754503619282332e+04
7.663382445094718423e+04
7.664684649930695014e+04
7.664684649930695014e+04
7.665056708455260377e+04
7.664080054828277207e+04
7.664080054828277207e+04
7.662963879254582571e+04
7.662963879254582571e+04
7.664080054828277207e+04
7.662963879254582571e+04
7.662266269521023787e+04
7.663475459725859400e+04
7.663475459725859400e+04
7.663568474357000377e+04
7.663289430463577446e+04
7.662591820730017207e+04
7.660592006160480378e+04
7.660592006160480378e+04
7.659987411058062571e+04
7.660871050053904764e+04
7.661196601262899640e+04
7.660173440320345981e+04
7.660173440320345981e+04
7.659382815955644764e+04
7.659196786693362810e+04
7.660266454951486958e+04
7.659754874480210128e+04
7.659754874480210128e+04
7.658592191590945004e+04
7.657894581857384765e+04
7.658359655013091106e+04
7.656778406283690128e+04
7.656778406283690128e+04
7.656871420914832561e+04
7.657289986754966958e+04
7.656871420914832561e+04
7.655755245341136470e+04
7.655755245341136470e+04
7.656685391652549151e+04
7.655755245341136470e+04
7.654499547820730368e+04
7.654871606345295731e+04
7.654871606345295731e+04
7.654778591714154754e+04
7.654871606345295731e+04
7.653987967349453538e+04
7.653197342984753777e+04
7.653197342984753777e+04
7.654499547820730368e+04
7.654267011242877925e+04
7.653290357615894754e+04
7.653290357615894754e+04
7.654499547820730368e+04
7.654267011242877925e+04
7.653197342984753777e+04
7.653662416140460118e+04
7.653662416140460118e+04
7.653383372247035732e+04
7.652267196673341095e+04
7.652778777144617925e+04
7.652871791775758902e+04
7.652871791775758902e+04
7.652174182042200118e+04
7.653383372247035732e+04
7.651662601570923289e+04
7.651755616202064266e+04
7.651755616202064266e+04
7.652174182042200118e+04
7.652592747882335971e+04
7.651755616202064266e+04
7.651755616202064266e+04
7.651755616202064266e+04
7.654360025874018902e+04
7.652174182042200118e+04
7.651895138148775732e+04
7.650081352841522312e+04
7.650081352841522312e+04
7.652267196673341095e+04
7.651197528415216948e+04
7.650964991837364505e+04
7.649290728476821096e+04
7.649290728476821096e+04
7.650778962575081096e+04
7.651058006468505482e+04
7.651755616202064266e+04
7.651058006468505482e+04
7.651058006468505482e+04
7.651290543046357925e+04
7.651569586939782312e+04
7.650778962575081096e+04
7.651569586939782312e+04
7.651569586939782312e+04
7.650174367472663289e+04
7.651569586939782312e+04
7.651290543046357925e+04
7.650964991837364505e+04
7.650964991837364505e+04
7.648360582165409869e+04
7.650499918681658164e+04
7.650964991837364505e+04
7.650964991837364505e+04
7.650871977206222073e+04
7.650267382103804266e+04
7.649755801632527437e+04
7.650360396734945243e+04
7.650360396734945243e+04
7.650592933312799141e+04
7.650778962575081096e+04
7.649755801632527437e+04
7.650081352841522312e+04
7.650081352841522312e+04
7.649755801632527437e+04
7.651058006468505482e+04
7.650267382103804266e+04
7.649290728476821096e+04
7.649290728476821096e+04
7.651476572308641335e+04
7.649895323579240358e+04
7.649755801632527437e+04
7.650174367472663289e+04
7.650174367472663289e+04
7.649058191898968653e+04
7.651058006468505482e+04
7.651290543046357925e+04
7.650267382103804266e+04
7.650267382103804266e+04
7.650592933312799141e+04
7.650871977206222073e+04
7.652081167411059141e+04
7.650499918681658164e+04
7.650499918681658164e+04
7.651755616202064266e+04
7.650360396734945243e+04
7.651290543046357925e+04
7.651197528415216948e+04
7.651197528415216948e+04
7.651895138148775732e+04
7.651895138148775732e+04
7.652360211304482073e+04
7.652174182042200118e+04
7.652174182042200118e+04
7.651569586939782312e+04
7.651662601570923289e+04
7.651290543046357925e+04
7.651290543046357925e+04
